#####################################################################
# Alchemist log file - simulation started at: 2023-03-03T08:05+0000 #
#####################################################################
#
# random = 9.0
#
# The columns have the following meaning: 
# time avgDistanceTeam[mean] minDistance[min] inDanger dangerTriggered 
0.0 NaN NaN 0.0 0.0
0.0 NaN NaN 0.0 0.0
1.0 NaN 36.03401513222937 1.0 1.0
2.0 NaN 35.231022358463306 1.0 1.0
3.0 61.921998701951736 33.2310223584633 1.0 1.0
4.0 58.894001460268676 31.2310223584633 1.0 1.0
5.0 57.18300805486754 29.2310223584633 1.0 1.0
6.0 55.19114803879754 27.231022358463296 1.0 1.0
7.0 53.31714380607447 25.231022358463303 1.0 1.0
8.0 51.513941708928485 23.231022358463296 1.0 1.0
9.0 49.69121447917227 21.2310223584633 1.0 1.0
10.0 47.835441793258866 19.2310223584633 1.0 1.0
11.0 46.01107147656421 22.231022358463342 1.0 1.0
12.0 44.026061677219715 20.23102235846334 1.0 1.0
13.0 43.3030512986574 18.23102235846334 1.0 1.0
14.0 41.57356553406278 21.231022358463377 1.0 1.0
15.0 40.973613977470556 19.23102235846338 1.0 1.0
16.0 39.77494379256579 18.90387659865632 1.0 1.0
17.0 38.22031374744924 20.23102235846342 1.0 1.0
18.0 36.62302599158611 18.60017054982828 1.0 1.0
19.0 35.33135120415478 20.23102235846342 1.0 1.0
20.0 33.80428364478899 18.231022358463417 1.0 1.0
21.0 34.178122240977046 18.098458453306975 1.0 1.0
22.0 33.010268884930596 18.459509745997625 1.0 1.0
23.0 33.63161153412385 18.501220267275837 1.0 1.0
24.0 32.50528961980915 18.670201112774933 1.0 1.0
25.0 31.56832807565009 18.56097750779219 1.0 1.0
26.0 30.48369575321366 18.576687659250187 1.0 1.0
27.0 29.668005536876105 18.22097631166389 1.0 1.0
28.0 29.028692115929484 18.575175436005637 1.0 1.0
29.0 28.047909914684187 18.22366430543484 1.0 1.0
30.0 27.21467276054596 18.22366430543484 1.0 1.0
31.0 26.682386310009118 18.22366430543484 1.0 1.0
32.0 25.934259428458887 16.338091101293465 1.0 1.0
33.0 25.657780604565886 14.483248977738024 1.0 1.0
34.0 25.124989011699363 12.672639072747799 1.0 1.0
35.0 24.834690213752385 10.928268901574437 1.0 1.0
36.0 24.15615870011827 8.819121498645435 1.0 1.0
37.0 23.97690099823104 7.778240222742941 1.0 1.0
38.0 23.50776470661332 4.852505562717685 1.0 1.0
39.0 23.26085953271924 0.9642208768350924 1.0 1.0
40.0 23.17559378492197 1.5797791527326086 1.0 1.0
41.0 23.086945484350608 5.70407055550449 1.0 1.0
42.0 23.194127457108003 5.682679806245027 1.0 1.0
43.0 23.238609108100125 2.7573001668937045 1.0 1.0
44.0 23.60094272278624 1.4651121167112526 1.0 1.0
45.0 23.921872641277382 1.564494746141564 1.0 1.0
46.0 24.401954175350223 5.663125405686347 1.0 1.0
47.0 24.735888086212935 8.566951476371703 1.0 1.0
48.0 25.275348465136652 10.267540487956916 1.0 1.0
49.0 25.74748724266493 12.06035313517652 1.0 1.0
50.0 26.25091047765085 10.338682319528763 1.0 1.0
51.0 26.911829528874463 8.678210909289914 1.0 1.0
52.0 27.29971788662531 6.013096502641757 1.0 1.0
53.0 27.7565399845006 5.3460566805884815 1.0 1.0
54.0 28.331048818048018 5.38547254324512 1.0 1.0
55.0 28.992598857444218 3.0456874042156032 1.0 1.0
56.0 29.784133958751163 2.110278232825504 1.0 1.0
57.0 30.41371162769221 3.70390310450936 1.0 1.0
58.0 31.169787007365613 3.70390310450936 1.0 1.0
59.0 31.915870149507597 3.332409202884204 1.0 1.0
60.0 32.54506020989295 3.042996831715075 1.0 1.0
61.0 33.27586785147942 3.926156942888126 1.0 1.0
62.0 34.10066907509228 5.437792471449171 1.0 1.0
63.0 34.92071070529417 4.04953286263521 1.0 1.0
64.0 35.752114541206026 2.4058113842824573 1.0 1.0
65.0 36.695739535192345 5.195077321234403 1.0 1.0
66.0 37.70915318170056 6.524782283616983 1.0 1.0
67.0 38.42598746944175 7.787385480572621 1.0 1.0
68.0 39.258142964498845 8.81780306077968 1.0 1.0
69.0 39.997833549110084 10.142182407602846 1.0 1.0
70.0 40.67585075503809 11.660791401527689 1.0 1.0
71.0 41.382720153158324 13.315347790591943 1.0 1.0
72.0 42.08396284141384 15.054320386200581 1.0 1.0
73.0 42.631183879170436 16.851622881079983 1.0 1.0
74.0 43.18206155718485 18.69046344303463 1.0 1.0
75.0 43.70568830901589 20.559458110211718 1.0 1.0
76.0 44.272714178425474 22.45106963030191 1.0 1.0
77.0 44.89772712719869 24.36002032013621 1.0 1.0
78.0 45.491843650319986 26.28252062981079 1.0 1.0
79.0 46.094087392424406 28.215799666551312 1.0 1.0
80.0 46.66429337433244 30.15778340255015 1.0 1.0
81.0 47.2551909240965 32.106891563385894 1.0 1.0
82.0 47.78429388426879 34.06190093916567 1.0 1.0
83.0 48.32214474356674 36.02185057444149 1.0 1.0
84.0 48.602309554246204 37.66169421695081 2.0 2.0
85.0 48.890387379758 38.454601689943 2.0 2.0
86.0 49.15539222103243 37.54682833057084 2.0 2.0
87.0 49.33074844360011 37.71915935647689 2.0 2.0
88.0 49.45491387726379 37.83016472902439 2.0 2.0
89.0 49.57650618981799 37.383763695712666 2.0 2.0
90.0 49.89476784477847 37.383763695712666 2.0 2.0
91.0 50.03532804750849 37.400012836699545 2.0 2.0
92.0 50.10546687013688 37.42333168307796 2.0 2.0
93.0 50.24624837440693 37.46266907402009 2.0 2.0
94.0 50.40687484341049 37.51251040493984 2.0 2.0
95.0 50.41149132861853 37.844800785189506 2.0 2.0
96.0 50.46042237335652 35.44068546597026 2.0 2.0
97.0 50.36984844856901 31.573676739885258 2.0 2.0
98.0 50.32927201515294 27.711526784921148 2.0 2.0
99.0 50.20537582543634 25.804916230529493 2.0 2.0
100.0 50.10580885110676 23.910333068834746 2.0 2.0
101.0 49.97900925877212 22.03037145527723 2.0 2.0
102.0 49.7906572307861 22.03037145527723 2.0 2.0
103.0 49.677729130997136 22.03037145527723 2.0 2.0
104.0 49.68572875951886 22.03037145527723 2.0 2.0
105.0 49.68239325791792 20.062704954642594 2.0 2.0
106.0 49.73351876676614 16.147527259992646 2.0 2.0
107.0 49.84995794459197 16.147527259992646 2.0 2.0
108.0 50.011449744351864 14.207091086418206 2.0 2.0
109.0 50.22211731959151 10.338587873190724 2.0 2.0
110.0 50.29782347099015 6.469207163621223 2.0 2.0
111.0 50.39546384769597 4.566299338988331 2.0 2.0
112.0 50.365641939500605 2.8033436936928298 2.0 2.0
113.0 50.252119831827976 1.6976592780256687 2.0 2.0
114.0 50.10474719296269 4.972874563066766 2.0 2.0
115.0 49.94758266112632 5.353270609901416 2.0 2.0
116.0 49.69469429236732 5.353270609901416 2.0 2.0
117.0 49.52995013560647 5.353270609901416 2.0 2.0
118.0 49.3959255045849 5.031356713910769 2.0 2.0
119.0 49.480034907202544 5.522893897019341 2.0 2.0
120.0 49.595803098188895 6.641121926787425 2.0 2.0
121.0 49.796580610513686 8.126263390923564 2.0 2.0
122.0 50.012580656699754 11.819936363968665 2.0 2.0
123.0 50.32145380624588 15.646675333634933 2.0 2.0
124.0 50.553393288016785 19.528644169407833 2.0 2.0
125.0 50.607307112091995 23.442259365014564 2.0 2.0
126.0 50.535814445185565 27.37027012088631 2.0 2.0
127.0 50.445671989438054 28.33145726795765 2.0 2.0
128.0 50.257690617910455 26.628771811030212 2.0 2.0
129.0 50.03001307561896 23.731477165280513 2.0 2.0
130.0 49.75078712841871 22.594243089021994 2.0 2.0
131.0 49.54170912451957 19.872116373932492 2.0 2.0
132.0 49.55602894559934 18.24306980128424 2.0 2.0
133.0 49.50858180580923 16.700612515807695 2.0 2.0
134.0 49.70106891282162 15.27153543757448 2.0 2.0
135.0 49.93127400774523 13.983173131983799 2.0 2.0
136.0 50.05794542543846 13.983173131983799 2.0 2.0
137.0 50.176835968346126 13.983173131983799 2.0 2.0
138.0 50.35199915838438 13.983173131983799 2.0 2.0
139.0 50.336672925576885 12.000417407321109 2.0 2.0
140.0 50.24033661725591 8.055536698138852 2.0 2.0
141.0 50.2056344829094 8.055536698138852 2.0 2.0
142.0 50.11508145501056 6.108765602349826 2.0 2.0
143.0 49.980306898497176 2.907184884588057 2.0 2.0
144.0 49.826252722445545 1.8976743160198468 2.0 2.0
145.0 49.67890630037188 5.080474831674868 2.0 2.0
146.0 49.65016914632629 6.839698083537388 2.0 2.0
147.0 49.68523825412761 8.702513844901269 2.0 2.0
148.0 49.77664257013431 10.782839797977182 2.0 2.0
149.0 49.99870799332935 13.38725603401469 2.0 2.0
150.0 50.061388770447685 14.185974107214816 2.0 2.0
151.0 50.12276690791696 12.705971774824427 2.0 2.0
152.0 50.16567594671332 12.308419052144085 2.0 2.0
153.0 50.19860199308935 13.051274181932731 2.0 2.0
154.0 50.09923993907421 14.041923354542485 2.0 2.0
155.0 49.95450424879132 14.041923354542485 2.0 2.0
156.0 49.821465849001136 14.041923354542485 2.0 2.0
157.0 49.77966742046053 14.041923354542485 2.0 2.0
158.0 49.891946609007775 14.311779969249276 2.0 2.0
159.0 49.84108174008603 14.849529805635306 2.0 2.0
160.0 49.9203611907634 15.627296105389233 2.0 2.0
161.0 50.04545511937438 16.61186223951321 2.0 2.0
162.0 50.19531815002747 19.63018227468979 2.0 2.0
163.0 50.299810050768684 22.428688554977835 2.0 2.0
164.0 50.23987414879622 22.86265244612863 2.0 2.0
165.0 50.11504028168049 23.331431234468866 2.0 2.0
166.0 50.102974043509235 23.832970650446146 2.0 2.0
167.0 50.01443919358446 24.365247722962007 3.0 3.0
168.0 49.84679060452058 24.926293410324437 3.0 3.0
169.0 49.72000510667998 25.51420995747 3.0 3.0
170.0 49.747781494342505 26.127183474881857 3.0 3.0
171.0 49.82274659850316 26.192052340605617 3.0 3.0
172.0 49.97536792881378 26.524492324049593 3.0 3.0
173.0 50.10866096355679 26.631545062528094 3.0 3.0
174.0 50.17130056925829 26.365574746606306 3.0 3.0
175.0 50.353117450795956 26.768898830109396 3.0 3.0
176.0 50.40507549299519 21.82619242548568 3.0 3.0
177.0 50.301691763477905 21.82619242548568 3.0 3.0
178.0 50.170611751159626 21.82619242548568 3.0 3.0
179.0 49.931924655791235 21.82619242548568 3.0 3.0
180.0 49.782514635863954 21.82619242548568 3.0 3.0
181.0 49.69759159283943 21.82619242548568 3.0 3.0
182.0 49.71338582265717 21.462798741755652 3.0 3.0
183.0 49.69595085118925 19.944457276227947 3.0 3.0
184.0 49.809950944535714 18.088119755580877 3.0 3.0
185.0 50.0213914592888 16.204298000435482 3.0 3.0
186.0 50.163360827922 14.907476593230305 3.0 3.0
187.0 50.24217274712247 14.357521381010345 3.0 3.0
188.0 50.25528100110003 15.37510326817023 3.0 3.0
189.0 50.254226422111934 16.572704715820468 3.0 3.0
190.0 50.17809291386311 16.30585313036786 3.0 3.0
191.0 49.95956726661833 14.623740300420835 3.0 3.0
192.0 49.82202135169012 12.972082336494713 3.0 3.0
193.0 49.7367451151129 11.478913816192387 3.0 3.0
194.0 49.71527657203505 10.1614878572474 3.0 3.0
195.0 49.72516738263207 10.1614878572474 3.0 3.0
196.0 49.7740097100344 10.1614878572474 3.0 3.0
197.0 49.85675158419973 10.1614878572474 3.0 3.0
198.0 50.02371805331569 9.790724745612186 3.0 3.0
199.0 50.08414084697709 9.821465348126466 3.0 3.0
200.0 50.11616006924794 10.250092072588306 3.0 3.0
201.0 50.19142936288699 11.030303414168898 3.0 3.0
202.0 50.32274431350236 12.094269464663613 3.0 3.0
203.0 50.211776707152204 11.389749178465346 3.0 3.0
204.0 50.181792732476794 9.411538024378352 3.0 3.0
205.0 50.06554664323842 7.444978293575475 3.0 3.0
206.0 49.920588224164995 5.5025766248363865 3.0 3.0
207.0 49.90268997909709 3.6233941339099838 3.0 3.0
208.0 49.82518780774657 1.9948954624542026 3.0 3.0
209.0 49.83431153791218 4.569983589141979 3.0 3.0
210.0 49.737688120114804 4.569983589141979 3.0 3.0
211.0 49.79577083954481 4.569983589141979 3.0 3.0
212.0 49.8806991794368 6.564529920123524 3.0 3.0
213.0 49.921627752001825 6.564529920123524 3.0 3.0
214.0 50.030739976586794 8.563416997395821 3.0 3.0
215.0 50.08224099124245 9.336573742692751 3.0 3.0
216.0 50.15489283909466 10.33318713845673 3.0 3.0
217.0 50.23781770168695 11.49845476446958 3.0 3.0
218.0 50.209549840305684 12.786553656815782 3.0 3.0
219.0 50.15539927540464 12.575083310022098 3.0 3.0
220.0 50.08546727869838 12.730179406038179 3.0 3.0
221.0 50.01337594661009 13.245264061877714 3.0 3.0
222.0 49.94112109666516 13.245264061877714 3.0 3.0
223.0 49.84349523070283 13.245264061877714 3.0 3.0
224.0 49.82108749068449 13.216536626895294 3.0 3.0
225.0 49.7852980558741 12.2312630406017 3.0 3.0
226.0 49.80718464930441 11.512197192072547 3.0 3.0
227.0 49.883062767589486 11.111140084809529 3.0 3.0
228.0 49.99738571240789 11.062731972623803 3.0 3.0
229.0 50.089821633014864 13.011228810731973 3.0 3.0
230.0 50.16713721288015 14.748542157403147 3.0 3.0
231.0 50.234883448726066 16.550769041587554 3.0 3.0
232.0 50.225560609621915 18.39769040635036 3.0 3.0
233.0 50.150775771625966 19.47707641742526 3.0 3.0
234.0 50.00168495916787 19.47707641742526 3.0 3.0
235.0 49.784302725039616 15.864717324788215 3.0 3.0
236.0 49.548739197483435 13.007926417601976 3.0 3.0
237.0 49.44376201221924 11.065478226751503 3.0 3.0
238.0 49.43915740097307 11.065478226751503 3.0 3.0
239.0 49.41491679285764 7.143065022216496 3.0 3.0
240.0 49.60050215091174 7.143065022216496 3.0 3.0
241.0 49.75401502468624 7.143065022216496 3.0 3.0
242.0 49.98863728754452 7.143065022216496 3.0 3.0
243.0 50.11924718208758 7.143065022216496 3.0 3.0
244.0 50.23894456113968 6.720301620001836 3.0 3.0
245.0 50.21648453502502 5.480138447188012 3.0 3.0
246.0 50.26271395021042 4.125357833521429 3.0 3.0
247.0 49.961066147867236 2.853974490585215 3.0 3.0
248.0 49.72384317917021 2.205637404512199 3.0 3.0
249.0 49.563112837723494 5.922524227875183 3.0 3.0
250.0 49.498759593430435 5.922524227875183 3.0 3.0
251.0 49.50238124806099 7.898090188798637 4.0 4.0
252.0 49.589565496152964 7.898090188798637 4.0 4.0
253.0 49.65922018583279 7.763181754251759 4.0 4.0
254.0 49.841354789003965 8.13352034906765 4.0 4.0
255.0 49.983478699837605 8.872618521242536 4.0 4.0
256.0 50.013561661593045 9.91682986279347 4.0 4.0
257.0 50.03225492467317 11.166055191730917 4.0 4.0
258.0 49.95914132680495 12.558983264714815 4.0 4.0
259.0 49.83814123513337 12.558983264714815 4.0 4.0
260.0 49.877716626803135 13.681674283446362 4.0 4.0
261.0 49.78180849389176 14.988274187327505 4.0 4.0
262.0 49.70413118222068 16.434978431240896 4.0 4.0
263.0 49.70288424675942 17.988014613295963 4.0 4.0
264.0 49.7606824462678 19.841123683903966 4.0 4.0
265.0 49.84896970979732 18.042476409776892 4.0 4.0
266.0 49.94362504110008 16.283034345431787 4.0 4.0
267.0 49.79663822275596 14.579493421165822 4.0 4.0
268.0 49.73267664554848 12.954601024811542 4.0 4.0
269.0 49.65430377922233 12.954601024811542 4.0 4.0
270.0 49.67487805808415 12.308654221515408 4.0 4.0
271.0 49.642650072798496 11.965962133385256 4.0 4.0
272.0 49.686883670953534 11.952636631545797 4.0 4.0
273.0 49.71325008140704 12.269750969337814 4.0 4.0
274.0 49.80887628274273 12.892945759162222 4.0 4.0
275.0 49.881824986819005 12.892945759162222 4.0 4.0
276.0 49.93296558072487 10.934160099599074 4.0 4.0
277.0 49.873062557657505 8.991085536271244 4.0 4.0
278.0 49.948729431291206 7.077573339896472 4.0 4.0
279.0 49.99911402356208 5.226947568116411 4.0 4.0
280.0 49.95345041466751 3.5355269625510144 4.0 4.0
281.0 49.74325150847192 4.368541826532265 4.0 4.0
282.0 49.66708415648867 6.157651709875204 4.0 4.0
283.0 49.67647977184866 8.094928672809381 4.0 4.0
284.0 49.700045513953235 10.056792006292829 4.0 4.0
285.0 49.650326913799546 12.031220222126013 4.0 4.0
286.0 49.68133090106394 14.012903115395416 4.0 4.0
287.0 49.74082564485936 14.012903115395416 4.0 4.0
288.0 49.911691503059814 14.012903115395416 4.0 4.0
289.0 50.07918600556102 14.012903115395416 4.0 4.0
290.0 50.17291195263869 13.911190659295716 4.0 4.0
291.0 50.030574956224164 14.099971064738485 4.0 4.0
292.0 49.93055587766371 14.566738298456361 4.0 4.0
293.0 49.73454038229598 15.285310482388466 4.0 4.0
294.0 49.53579506549016 17.697291628685406 4.0 4.0
295.0 49.411464690348666 20.128300474037857 4.0 4.0
296.0 49.33320779459344 20.23648649029161 4.0 4.0
297.0 49.26146902620098 20.23648649029161 4.0 4.0
298.0 49.44841670464202 20.235286295476552 4.0 4.0
299.0 49.659580251954736 18.521942158621616 4.0 4.0
300.0 49.70630826986784 16.87159546876573 4.0 4.0
301.0 49.80835232790419 15.304872622665885 4.0 4.0
302.0 50.02674696767591 13.908271511587435 4.0 4.0
303.0 50.025525505772606 12.211163961175494 4.0 4.0
304.0 49.97116656227816 12.283881554672217 4.0 4.0
305.0 49.81723995100074 14.03679865239821 4.0 4.0
306.0 49.61925847964446 15.848993274689088 4.0 4.0
307.0 49.48980675460831 18.43900186926531 4.0 4.0
308.0 49.47363856425126 19.58503918991519 4.0 4.0
309.0 49.469290218661904 21.489941393283015 4.0 4.0
310.0 49.510241046740525 21.645195854312433 4.0 4.0
311.0 49.54077689721247 19.85015039315806 4.0 4.0
312.0 49.74136057249625 18.045983662987215 4.0 4.0
313.0 49.929203715551466 16.2474825485954 4.0 4.0
314.0 50.032307618999305 14.416928737222747 4.0 4.0
315.0 50.155867508544006 12.554291650157277 4.0 4.0
316.0 50.218817512597234 10.654138421327856 4.0 4.0
317.0 50.13637777461957 10.654138421327856 4.0 4.0
318.0 49.96947922730843 12.349901075469917 4.0 4.0
319.0 49.767390576446466 14.124646381635978 4.0 4.0
320.0 49.596487743708614 15.952543309992782 4.0 4.0
321.0 49.412953447222904 17.817453261005866 4.0 4.0
322.0 49.40128255744414 19.708459063439996 4.0 4.0
323.0 49.43867712598662 19.44937113332804 4.0 4.0
324.0 49.487966338742964 17.928447380383496 4.0 4.0
325.0 49.6359002813986 17.662683431163117 4.0 4.0
326.0 49.85338632861758 17.45025921033233 4.0 4.0
327.0 49.89434047082071 15.761911760984791 4.0 4.0
328.0 49.85691943662558 13.810997015466837 4.0 4.0
329.0 49.91825476320274 11.85493360873298 4.0 4.0
330.0 49.987168494176 9.892651591002416 4.0 4.0
331.0 49.808360362184686 9.892651591002416 4.0 4.0
332.0 49.759543470641695 11.888404146596509 4.0 4.0
333.0 49.62209405211686 13.88540570909714 4.0 4.0
334.0 49.64544673558242 12.325518147386312 5.0 5.0
335.0 49.609966553396276 10.687737393732302 5.0 5.0
336.0 49.62677554371062 9.050281676287476 5.0 5.0
337.0 49.645507316497095 7.413177233097622 5.0 5.0
338.0 49.755963742612295 5.776498400240346 5.0 5.0
339.0 49.81077594158938 5.973609686649971 5.0 5.0
340.0 49.86602867207017 6.324562562651851 5.0 5.0
341.0 49.950556935734475 6.805598469595175 5.0 5.0
342.0 50.00057864644961 7.391363165872376 5.0 5.0
343.0 49.94054097769896 8.059052572745355 5.0 5.0
344.0 49.85799747526763 9.569769391745568 5.0 5.0
345.0 49.729576252599934 9.569769391745568 5.0 5.0
346.0 49.69432825727625 8.549498348859306 5.0 5.0
347.0 49.63986364993282 7.743559667327392 5.0 5.0
348.0 49.631801127538765 7.224082843691862 5.0 5.0
349.0 49.63847190542067 7.054661531140463 5.0 5.0
350.0 49.73476208255039 7.260050248385428 5.0 5.0
351.0 49.788127806318926 7.810847738762184 5.0 5.0
352.0 49.84868930482474 8.641396420475763 5.0 5.0
353.0 49.840628164445704 9.419844110562886 5.0 5.0
354.0 49.86340056503902 10.236854694621838 5.0 5.0
355.0 49.78184572735564 11.083903870491527 5.0 5.0
356.0 49.78853313246526 11.954608148400053 5.0 5.0
357.0 49.873669607963855 12.84415769730693 5.0 5.0
358.0 49.900424585004075 12.492362728208677 5.0 5.0
359.0 49.839933766958566 12.492362728208677 5.0 5.0
360.0 49.84799174867477 14.25434890160461 5.0 5.0
361.0 49.75944380513587 15.939005925775545 4.0 5.0
362.0 49.731051339637546 16.77997907536582 4.0 5.0
363.0 49.65904554078104 17.732489617485808 4.0 5.0
364.0 49.58075974196435 18.779484615869478 4.0 5.0
365.0 49.575516430911904 19.92089244189367 4.0 5.0
366.0 49.681330690645346 20.61258914906394 4.0 5.0
367.0 49.78033717514103 20.287530569817267 4.0 5.0
368.0 49.75056178670757 18.710781827426526 4.0 5.0
369.0 49.702648386235886 17.223726977770497 4.0 5.0
370.0 49.66623656523272 16.06443885936554 4.0 5.0
371.0 49.70528669781553 16.06443885936554 4.0 5.0
372.0 49.72702438300257 16.06443885936554 4.0 5.0
373.0 49.75760835411759 17.42347423735844 4.0 5.0
374.0 49.79725536434319 18.847052161825847 4.0 5.0
375.0 49.86906005299886 19.732212953476246 4.0 5.0
376.0 50.11008156703078 18.5792022315799 4.0 5.0
377.0 50.25339934033569 17.433134896018537 4.0 5.0
378.0 50.257499511404895 16.29547600605283 4.0 5.0
379.0 50.192586641832904 17.16777784925159 4.0 5.0
380.0 50.23857431375912 18.053328067108946 4.0 5.0
381.0 50.22365333380233 18.950269452334286 4.0 5.0
382.0 50.07291075572235 19.85705845117762 4.0 5.0
383.0 49.817151968768485 20.77240545413301 4.0 5.0
384.0 49.761961755271834 21.505956837267693 4.0 5.0
385.0 49.67182446294501 20.347645843869287 4.0 5.0
386.0 49.59729098024289 19.32736928008158 4.0 5.0
387.0 49.592478097845905 18.484226414950097 4.0 5.0
388.0 49.75133150696476 18.3648247030537 4.0 5.0
389.0 49.89785030978048 18.547456685903807 4.0 5.0
