#####################################################################
# Alchemist log file - simulation started at: 2023-03-03T08:05+0000 #
#####################################################################
#
# random = 5.0
#
# The columns have the following meaning: 
# time avgDistanceTeam[mean] minDistance[min] inDanger dangerTriggered 
0.0 NaN NaN 0.0 0.0
0.0 NaN NaN 0.0 0.0
1.0 NaN 28.665012923630243 1.0 1.0
2.0 NaN 26.658317838217613 1.0 1.0
3.0 63.080582008355904 24.65831783821756 1.0 1.0
4.0 58.952105197617016 22.65831783821751 1.0 1.0
5.0 57.129645393864365 20.65831783821746 1.0 1.0
6.0 55.378185374311 18.658317838217407 1.0 1.0
7.0 53.920191069471514 21.658317838217442 1.0 1.0
8.0 52.20003366685515 19.658317838217393 1.0 1.0
9.0 50.576456783951066 22.658317838217428 1.0 1.0
10.0 48.93009567152515 20.658317838217375 1.0 1.0
11.0 47.15737418235018 18.658317838217325 1.0 1.0
12.0 45.502974796621096 21.65831783821736 1.0 1.0
13.0 43.703764077184815 19.658317838217307 1.0 1.0
14.0 42.29196394487335 22.658317838217343 1.0 1.0
15.0 40.36810542923173 20.658317838217293 1.0 1.0
16.0 39.295202857249876 19.635062915506794 1.0 1.0
17.0 37.590417699540644 18.631564975499305 1.0 1.0
18.0 36.15061007935813 18.658317838217243 1.0 1.0
19.0 34.759601306200686 17.89160610460916 1.0 1.0
20.0 33.43936542345832 17.89160610460916 1.0 1.0
21.0 32.2386610134944 18.77627552464549 1.0 1.0
22.0 30.881114399396274 16.96532867272343 1.0 1.0
23.0 30.06343250336868 15.201849603573306 1.0 1.0
24.0 28.843477284107415 13.471885083526097 1.0 1.0
25.0 27.770577770879406 11.826276930449675 1.0 1.0
26.0 26.866523400700107 10.30543603491396 1.0 1.0
27.0 25.817140023474963 10.30543603491396 1.0 1.0
28.0 25.349627083627094 8.974487050760263 1.0 1.0
29.0 24.467713106469233 7.929679368468053 1.0 1.0
30.0 23.92817071273531 7.295081353155182 1.0 1.0
31.0 23.510207756681755 7.180286275162329 1.0 1.0
32.0 22.809207346071705 7.608861262619746 1.0 1.0
33.0 22.777327978824157 6.98715865187214 1.0 1.0
34.0 22.373596890380334 5.81156378591434 1.0 1.0
35.0 22.157405946263925 5.1699285535750485 1.0 1.0
36.0 22.235546595283758 5.261373286547003 1.0 1.0
37.0 22.406163341342822 6.052762713977022 1.0 1.0
38.0 22.653759107951252 6.208862236169929 1.0 1.0
39.0 23.130751080725226 5.177975207735437 1.0 1.0
40.0 23.236873323074715 4.803424219877775 1.0 1.0
41.0 23.57230313508857 5.228225437019121 1.0 1.0
42.0 23.935560969467826 6.2925192255947 1.0 1.0
43.0 24.386666486356045 7.736747067641791 1.0 1.0
44.0 24.964435582784827 6.697403099262699 1.0 1.0
45.0 25.668483657100005 6.00346803126298 1.0 1.0
46.0 26.463474062480955 5.559619161442566 1.0 1.0
47.0 27.205177744479553 3.1813743965258574 1.0 1.0
48.0 28.14496277657924 1.0904956663956396 1.0 1.0
49.0 29.18850028501518 0.9695364289842866 1.0 1.0
50.0 30.190961032729685 2.6839137870852072 1.0 1.0
51.0 31.37355188092473 3.3893468931698867 1.0 1.0
52.0 32.702184480140744 6.637486772394216 1.0 1.0
53.0 33.85874506765396 8.505322439475279 1.0 1.0
54.0 35.252488555345636 9.736723920914256 1.0 1.0
55.0 36.46745999690081 10.526302525735785 1.0 1.0
56.0 37.6094669289367 11.341434167736653 1.0 1.0
57.0 38.95288032484414 9.973070111716842 1.0 1.0
58.0 39.90177893012201 8.848509813823764 1.0 1.0
59.0 41.11530954857464 8.070323686039574 1.0 1.0
60.0 42.11470961164501 7.743650487306846 1.0 1.0
61.0 43.316887146438006 7.9245265689304105 1.0 1.0
62.0 44.432789124258576 8.58091602416669 1.0 1.0
63.0 45.443377011449144 9.615930443067775 1.0 1.0
64.0 46.405889211465436 10.922459281591982 1.0 1.0
65.0 47.18014429947294 12.4150761266354 1.0 1.0
66.0 47.90031500547663 14.034532899326218 1.0 1.0
67.0 48.36670672665416 15.741731549432163 1.0 1.0
68.0 48.816942977360384 17.511028257829583 1.0 1.0
69.0 49.09784388144451 19.32537474717178 1.0 1.0
70.0 49.4263609360222 21.17319313638695 1.0 1.0
71.0 49.58461091022761 23.04643369510481 1.0 1.0
72.0 49.749996120557775 24.939368567286948 1.0 1.0
73.0 49.9264943635977 26.847832370735226 1.0 1.0
74.0 50.0265977010992 28.76873479107512 1.0 1.0
75.0 50.10141237729504 30.699741040460484 1.0 1.0
76.0 50.2478942820713 32.32389901683355 1.0 1.0
77.0 50.32517888924532 31.717325044157775 1.0 1.0
78.0 50.44428850719479 31.227279232476583 1.0 1.0
79.0 50.433271362135294 30.85931348182213 1.0 1.0
80.0 50.26057717054533 30.617829591198575 1.0 1.0
81.0 50.21932649712117 30.505831396340948 1.0 1.0
82.0 50.08192061179225 30.505831396340948 1.0 1.0
83.0 49.83997140114765 30.5247442165907 1.0 1.0
84.0 49.836802712725294 30.67432590611563 2.0 2.0
85.0 49.79091235116487 30.952682114816888 2.0 2.0
86.0 49.87833926792345 31.356383567101837 2.0 2.0
87.0 50.06948128622052 31.356383567101837 2.0 2.0
88.0 50.15410339428062 31.356383567101837 2.0 2.0
89.0 50.215231498445405 31.356383567101837 2.0 2.0
90.0 50.34313855905675 31.356383567101837 2.0 2.0
91.0 50.38714692648157 29.622447799981096 2.0 2.0
92.0 50.31373368367619 27.92130182502988 2.0 2.0
93.0 50.258172589932514 26.260174452374734 2.0 2.0
94.0 50.138694319083235 26.54138597637295 2.0 2.0
95.0 50.01046149592056 26.799255657886487 2.0 2.0
96.0 49.97323560371628 27.034383865010632 2.0 2.0
97.0 49.84952303120413 27.247800978387613 2.0 2.0
98.0 49.851853429894 29.00176745311251 2.0 2.0
99.0 49.82231554980055 30.73380786340353 2.0 2.0
100.0 49.85896030654172 28.176619035331104 2.0 2.0
101.0 50.03643809876537 24.68157985692767 2.0 2.0
102.0 50.09193683408306 23.178425950598786 2.0 2.0
103.0 50.17045677633837 21.761241364349125 2.0 2.0
104.0 50.2970546847698 20.44879937049913 2.0 2.0
105.0 50.27452561198466 20.44879937049913 2.0 2.0
106.0 50.25687396164872 20.44879937049913 2.0 2.0
107.0 50.26435926247884 20.44879937049913 2.0 2.0
108.0 50.119275471378344 20.44879937049913 2.0 2.0
109.0 49.97825647630395 18.69526054452837 2.0 2.0
110.0 50.07640528775014 17.00506240361619 2.0 2.0
111.0 49.98948302017461 15.396487656959652 2.0 2.0
112.0 49.985472300763625 13.256188034117086 2.0 2.0
113.0 49.96157727360057 12.059919693948158 2.0 2.0
114.0 50.03539826654559 12.097019773407267 2.0 2.0
115.0 50.10817638775216 13.364197498172816 2.0 2.0
116.0 50.22585409244938 14.670734134989651 2.0 2.0
117.0 50.12768147829295 17.67058885805533 2.0 2.0
118.0 50.05413636515995 17.67058885805533 2.0 2.0
119.0 50.01568707217993 17.67058885805533 2.0 2.0
120.0 50.04368445042024 17.67058885805533 2.0 2.0
121.0 50.08599489726157 17.67058885805533 2.0 2.0
122.0 50.127643355929074 17.67058885805533 2.0 2.0
123.0 50.097669238569445 18.846273124035882 2.0 2.0
124.0 50.2306220867717 20.14660286953814 2.0 2.0
125.0 50.2964325513393 21.550467122192273 2.0 2.0
126.0 50.3366780011258 18.906250593125275 2.0 2.0
127.0 50.38843908580247 15.335251990075763 2.0 2.0
128.0 50.34011729674079 13.428939411004228 2.0 2.0
129.0 50.35743653478593 11.407135886834038 2.0 2.0
130.0 50.2004343064666 9.447022527080346 2.0 2.0
131.0 50.06545850279074 9.133951990386374 2.0 2.0
132.0 49.90424433252276 8.922551389496329 2.0 2.0
133.0 49.833213661739954 8.82013421857755 2.0 2.0
134.0 49.82403550187764 8.83049330271205 2.0 2.0
135.0 49.829265307408 8.953237196945146 2.0 2.0
136.0 49.90928859401667 5.939978617169954 2.0 2.0
137.0 49.905710732863334 3.1938612144259837 2.0 2.0
138.0 50.0449268902343 4.095133111611466 2.0 2.0
139.0 50.22800515418895 7.412988302773845 2.0 2.0
140.0 50.264732836631715 10.615725111863807 2.0 2.0
141.0 50.23191558470564 10.051184820225723 2.0 2.0
142.0 50.21910014820687 9.86608479201223 2.0 2.0
143.0 50.200419859675236 10.081454156541636 2.0 2.0
144.0 50.13059442823623 10.673289987203129 2.0 2.0
145.0 50.09615705416662 10.673289987203129 2.0 2.0
146.0 49.92874444953527 10.673289987203129 2.0 2.0
147.0 49.89678851329834 10.673289987203129 2.0 2.0
148.0 49.97889835362312 9.631181461952698 2.0 2.0
149.0 50.01856515487453 8.919584361938321 2.0 2.0
150.0 50.08645855003154 10.347907277952281 2.0 2.0
151.0 50.1075273423746 13.339462311312275 2.0 2.0
152.0 50.22359322140363 16.313441725182134 2.0 2.0
153.0 50.40270580838977 18.312980911574268 2.0 2.0
154.0 50.460213293331186 17.07684695024268 2.0 2.0
155.0 50.42503655511645 15.317485901827668 2.0 2.0
156.0 50.36353822420674 13.624794899625888 2.0 2.0
157.0 50.32437818340002 12.026928468105643 2.0 2.0
158.0 50.266273366384 10.567103647098563 2.0 2.0
159.0 50.16952238419013 9.310789821972007 2.0 2.0
160.0 50.00235059402712 8.34972662602502 2.0 2.0
161.0 49.885847782531975 8.34972662602502 1.0 2.0
162.0 49.91337088892637 7.113070710402885 1.0 2.0
163.0 49.96863172426077 6.282863063586141 1.0 2.0
164.0 50.06642035654715 6.0293879122673415 1.0 2.0
165.0 50.13572339803281 6.421300299361179 1.0 2.0
166.0 50.01336185138091 7.356191812491029 1.0 2.0
167.0 50.113189459631165 7.14969152127746 2.0 3.0
168.0 50.12910633762146 7.14969152127746 2.0 3.0
169.0 50.090128644593534 6.952360959650805 2.0 3.0
170.0 50.16637551340005 7.317771814564713 2.0 3.0
171.0 50.32371856531322 7.473573111755371 2.0 3.0
172.0 50.39440778753159 7.276344425137813 2.0 3.0
173.0 50.310396097407896 7.618026446077691 2.0 3.0
174.0 50.260867871950715 8.433297339597278 2.0 3.0
175.0 50.199488122838716 9.60226596284897 2.0 3.0
176.0 50.121158812721916 9.60226596284897 2.0 3.0
177.0 49.99330829403296 9.60226596284897 2.0 3.0
178.0 50.09135251280244 11.578628659914159 2.0 3.0
179.0 50.10538774681892 13.561914140879262 2.0 3.0
180.0 50.280263586517606 15.54947595333347 2.0 3.0
181.0 50.408841819073565 17.539856404393518 2.0 3.0
182.0 50.65461469715463 19.532193149176322 2.0 3.0
183.0 50.544546678259664 19.259935355634074 2.0 3.0
184.0 50.53237368583158 19.17498669922365 2.0 3.0
185.0 50.488396922348265 19.28485441695807 2.0 3.0
186.0 50.47765348076798 19.589407647454532 2.0 3.0
187.0 50.36787819796938 20.068773291362163 2.0 3.0
188.0 50.2669566999318 22.467724238338842 2.0 3.0
189.0 50.291591480906476 24.88523658966098 2.0 3.0
190.0 50.32480115843979 26.643938025189065 2.0 3.0
191.0 50.48170090880927 25.74922394744642 2.0 3.0
192.0 50.53840593161765 25.74922394744642 2.0 3.0
193.0 50.42333339844563 24.0403127743478 2.0 3.0
194.0 50.349635052443354 22.36088579469335 2.0 3.0
195.0 50.40701114590437 20.70475725740034 2.0 3.0
196.0 50.466243315808384 19.076888503582715 2.0 3.0
197.0 50.42643278587623 19.076888503582715 2.0 3.0
198.0 50.344519063149335 19.076888503582715 2.0 3.0
199.0 50.207258915083045 18.281992648297642 2.0 3.0
200.0 50.26053935939598 17.67346077539099 2.0 3.0
201.0 50.2872044856929 17.27244525189247 2.0 3.0
202.0 50.32800040127648 17.09449167168887 2.0 3.0
203.0 50.137843274618255 17.143238987794955 2.0 3.0
204.0 50.24310750987699 18.012840773641006 2.0 3.0
205.0 50.304854998754664 18.012840773641006 2.0 3.0
206.0 50.42894460937263 18.012840773641006 2.0 3.0
207.0 50.457301371237385 18.012840773641006 2.0 3.0
208.0 50.47528594354155 16.278640280019783 2.0 3.0
209.0 50.439805024309194 32.924769683000754 2.0 3.0
210.0 50.416985246160564 32.946652126675275 1.0 3.0
211.0 50.256663684289556 31.70045353423967 1.0 3.0
212.0 50.127287650459095 30.531819741743107 1.0 3.0
213.0 50.00232625363324 29.450660913390536 1.0 3.0
214.0 49.99992604007715 28.464468323239032 1.0 3.0
215.0 50.021842005983416 31.86590708463869 1.0 3.0
216.0 50.117767045871936 30.53126745805976 1.0 3.0
217.0 50.25026175762744 30.558394575335605 1.0 3.0
218.0 50.3574254410824 28.567096990322074 1.0 3.0
219.0 50.452888352332984 26.577106734061854 1.0 3.0
220.0 50.52339498871751 24.588741106744216 1.0 3.0
221.0 50.440371680906516 22.602428796248915 1.0 3.0
222.0 50.3885135491896 8.510456275984382 1.0 3.0
223.0 50.14085421498456 8.510456275984382 1.0 3.0
224.0 50.073903220209665 8.510456275984382 1.0 3.0
225.0 50.00229701483982 9.388073155751421 1.0 3.0
226.0 49.8921027659285 10.570931308817075 1.0 3.0
227.0 49.82805172767982 13.719993772652893 1.0 3.0
228.0 49.916238506861355 17.142848098441533 1.0 3.0
229.0 50.077380329655945 20.714098597321325 1.0 3.0
230.0 50.3651703311316 22.6886262259231 1.0 3.0
231.0 50.47574881530238 21.45309672288748 1.0 3.0
232.0 50.5416305158666 21.47660669114757 1.0 3.0
233.0 50.62040963982388 21.94909338423939 1.0 3.0
234.0 50.557985389612334 21.94909338423939 1.0 3.0
235.0 50.5211296929196 21.94909338423939 1.0 3.0
236.0 50.33885946487375 21.94909338423939 1.0 3.0
237.0 50.18753948939389 21.94909338423939 1.0 3.0
238.0 50.152561365785104 21.94909338423939 1.0 3.0
239.0 50.07052368750936 21.82412708964992 1.0 3.0
240.0 49.989618974312165 23.398389566142605 1.0 3.0
241.0 50.04352186882667 22.467936591981417 1.0 3.0
242.0 50.01512711039985 20.167168591351206 1.0 3.0
243.0 50.12964285296101 19.609894491199185 1.0 3.0
244.0 50.3441692903357 19.21583897083513 1.0 3.0
245.0 50.38345629157128 18.963885719906603 1.0 3.0
246.0 50.41693547050835 18.857210969080068 1.0 3.0
247.0 50.356331019346406 18.889552736905866 1.0 3.0
248.0 50.36196330323974 18.406592161579525 1.0 3.0
249.0 50.21056429561838 18.132507561719397 1.0 3.0
250.0 50.04100582385377 18.07681975258041 1.0 3.0
251.0 49.99575520566606 18.24149484007447 2.0 4.0
252.0 49.96298099716455 18.62068082976604 2.0 4.0
253.0 49.9127591057101 18.62068082976604 2.0 4.0
254.0 49.93402837091984 17.801471021809704 2.0 4.0
255.0 50.05815145150868 13.842136994103601 2.0 4.0
256.0 50.22815474593679 11.862874334154785 2.0 4.0
257.0 50.37698205757387 7.947029127374735 2.0 4.0
258.0 50.60590988757192 6.015604521495945 2.0 4.0
259.0 50.590673249242045 6.015604521495945 2.0 4.0
260.0 50.66341360206371 6.015604521495945 2.0 4.0
261.0 50.652990101931614 4.536163622515173 2.0 4.0
262.0 50.60153106340791 4.731913721857647 2.0 4.0
263.0 50.406725101622484 4.922205068777965 2.0 4.0
264.0 50.28735468083818 5.114451409272047 2.0 4.0
265.0 50.07802902418959 5.285896585384382 2.0 4.0
266.0 49.95988277482929 6.715286750367171 2.0 4.0
267.0 49.89186333802657 8.36970015919494 2.0 4.0
268.0 49.90584363496721 10.14012214518519 2.0 4.0
269.0 50.011322000108855 10.14012214518519 2.0 4.0
270.0 50.30891046154366 9.347778656185486 2.0 4.0
271.0 50.486433908127296 8.445784409664888 2.0 4.0
272.0 50.66253299263813 6.917294673759434 2.0 4.0
273.0 50.81385706123017 5.689710534130399 2.0 4.0
274.0 50.84580169310198 5.094265207420031 2.0 4.0
275.0 50.73455092068995 5.094265207420031 2.0 4.0
276.0 50.51984552538902 5.202135277779395 2.0 4.0
277.0 50.220466943157085 5.9705433861549695 2.0 4.0
278.0 49.991013615397655 5.9310651275326585 2.0 4.0
279.0 49.86582847082489 3.7956526822161982 2.0 4.0
280.0 49.81966293772574 5.008906351173278 2.0 4.0
281.0 49.8562515826266 8.199764271011976 2.0 4.0
282.0 50.04811506494374 8.774497526318981 2.0 4.0
283.0 50.19027362250161 8.774497526318981 2.0 4.0
284.0 50.36561753991628 8.774497526318981 2.0 4.0
285.0 50.551834647651035 8.861724816950892 2.0 4.0
286.0 50.57123629854522 8.949462974083636 2.0 4.0
287.0 50.50735476361604 9.03789321735266 2.0 4.0
288.0 50.44717845881976 19.536831092894023 2.0 4.0
289.0 50.40663104810148 19.536831092894023 2.0 4.0
290.0 50.354838684167525 19.42668342006273 2.0 4.0
291.0 50.253021069511426 17.14467598102243 2.0 4.0
292.0 50.24378477725092 15.56315564195072 2.0 4.0
293.0 50.182987666422356 15.985310805554537 2.0 4.0
294.0 50.095243022022665 16.63482155307713 2.0 4.0
295.0 50.12451833404876 16.63482155307713 2.0 4.0
296.0 50.19283485228041 16.63482155307713 2.0 4.0
297.0 50.15122570589448 16.63482155307713 1.0 4.0
298.0 50.204676280878274 16.63482155307713 1.0 4.0
299.0 50.29847821731583 16.63482155307713 1.0 4.0
300.0 50.15616642479685 15.799331537962233 1.0 4.0
301.0 50.07300681022055 15.18888077834904 1.0 4.0
302.0 49.98110175897276 14.833027975627402 1.0 4.0
303.0 49.81696950824289 14.742297600869051 1.0 4.0
304.0 49.77982483833779 30.652149995968706 1.0 4.0
305.0 49.69945637525555 30.499393140557242 1.0 4.0
306.0 49.667949058173534 30.34294973909739 1.0 4.0
307.0 49.629554298845484 29.259286123724692 1.0 4.0
308.0 49.685584899657485 29.259286123724692 1.0 4.0
309.0 49.940017697358186 29.259286123724692 1.0 4.0
310.0 50.1911452574945 27.83100961590115 1.0 4.0
311.0 50.256213275601795 28.21809428688909 1.0 4.0
312.0 50.311495460652594 28.553434165310048 1.0 4.0
313.0 50.320818154120815 28.84027985733583 1.0 4.0
314.0 50.249522596442745 29.130569493226997 1.0 4.0
315.0 50.28959708406117 29.33629465991421 1.0 4.0
316.0 50.04929490744518 30.312675314206157 1.0 4.0
317.0 49.87881337455992 30.312675314206157 1.0 4.0
318.0 49.72806174848961 29.62114688799252 1.0 4.0
319.0 49.57794352736872 27.08258350381331 1.0 4.0
320.0 49.604227988588775 25.9764842969837 1.0 4.0
321.0 49.632412232106674 24.875883574285954 1.0 4.0
322.0 49.691343758314446 25.113442690453613 1.0 4.0
323.0 49.88346142536507 25.38819457803107 1.0 4.0
324.0 50.13154142974498 25.698946361616354 1.0 4.0
325.0 50.191266522425686 26.044409462733125 1.0 4.0
326.0 50.25107328967252 26.423222445942717 1.0 4.0
327.0 50.22794662993751 26.83397295580808 1.0 4.0
328.0 50.032352380974686 27.275218143184624 1.0 4.0
329.0 49.9281261094352 27.4745981556809 1.0 4.0
330.0 49.87030520770113 27.18430215448215 1.0 4.0
331.0 49.65419413255283 27.07191395267999 1.0 4.0
332.0 49.5029373128859 25.897218735351824 1.0 4.0
333.0 49.47178851271745 24.71756651944635 1.0 4.0
334.0 49.571656152193704 23.533993760381797 2.0 5.0
335.0 49.73239509075492 22.346371333273495 2.0 5.0
336.0 49.841460772755845 21.155067180620392 2.0 5.0
337.0 49.954842628227446 20.431803911428243 2.0 5.0
338.0 50.10290273795808 20.431803911428243 2.0 5.0
339.0 50.16586197384229 20.940524566752593 2.0 5.0
340.0 50.18402569438626 21.48377357883115 2.0 5.0
341.0 50.00961389131039 22.059000096155714 2.0 5.0
342.0 49.809746073292985 22.66376939738649 2.0 5.0
343.0 49.68524626043236 23.29578076291127 2.0 5.0
344.0 49.57717984275684 22.072875889237068 2.0 5.0
345.0 49.437485958033044 20.85082002811758 2.0 5.0
346.0 49.38768435613073 19.6294225316223 2.0 5.0
347.0 49.40936144208332 18.409096992541475 2.0 5.0
348.0 49.56329591810769 17.189931290053345 2.0 5.0
349.0 49.85375734538798 17.860880283677126 2.0 5.0
350.0 49.84012089185956 18.561474921431685 2.0 5.0
351.0 49.92676544414278 19.28848511444143 2.0 5.0
352.0 50.067861202536676 20.039036023749244 2.0 5.0
353.0 50.03338902666978 20.81058075864802 2.0 5.0
354.0 49.845623709177744 19.62530786986262 1.0 5.0
355.0 49.643145571469766 18.444140585214676 1.0 5.0
356.0 49.51157452746391 17.268048965073195 1.0 5.0
357.0 49.54563075934426 16.09809785627316 1.0 5.0
358.0 49.637316267039914 14.935743302303148 1.0 5.0
359.0 49.62433012666206 15.780008493042246 1.0 5.0
360.0 49.78104694648372 16.641541637981668 1.0 5.0
361.0 49.88433660644615 17.51779518480764 1.0 5.0
362.0 50.03622884095348 18.406666949370866 1.0 5.0
363.0 50.084952739687004 19.306414173358398 1.0 5.0
364.0 49.959155702728935 20.215584787026227 1.0 5.0
365.0 49.784804869515774 21.132962601813272 1.0 5.0
366.0 49.83053756733009 20.072480685038357 1.0 5.0
367.0 49.783702402271196 19.03103105116984 1.0 5.0
368.0 49.65775223948277 18.011907744844272 1.0 5.0
369.0 49.61517216703431 17.01911615499108 1.0 5.0
370.0 49.60880939050158 16.05747428146473 1.0 5.0
371.0 49.72854797811616 15.132882959538598 1.0 5.0
372.0 49.859414487694686 14.252495660057155 1.0 5.0
373.0 49.98761820436288 15.163422697849542 1.0 5.0
374.0 50.07937706688763 15.195357583674589 1.0 5.0
375.0 50.16744749016956 15.292756333565743 1.0 5.0
376.0 50.23872970511366 15.45438127069128 1.0 5.0
377.0 50.22191022852647 15.67824622341325 1.0 5.0
378.0 50.01346299875098 15.961732638534274 1.0 5.0
379.0 49.87926558139607 16.301730368464842 1.0 5.0
380.0 49.78065595173592 15.107647680298456 1.0 5.0
381.0 49.65497211903074 13.921198081271442 1.0 5.0
382.0 49.483572522310524 12.744558795089914 1.0 5.0
383.0 49.407933344960206 10.434018207955262 1.0 5.0
384.0 49.47935323858886 10.434018207955262 1.0 5.0
385.0 49.786885673859075 9.310686892468956 1.0 5.0
386.0 49.795279857527845 8.220368582183141 1.0 5.0
387.0 49.91424219960219 8.383362428469477 1.0 5.0
388.0 50.01897770565156 8.659507583413948 1.0 5.0
389.0 50.10272793525944 9.038438889948516 1.0 5.0
