#####################################################################
# Alchemist log file - simulation started at: 2023-03-03T08:05+0000 #
#####################################################################
#
# random = 51.0
#
# The columns have the following meaning: 
# time avgDistanceTeam[mean] minDistance[min] inDanger dangerTriggered 
0.0 NaN NaN 0.0 0.0
0.0 NaN NaN 0.0 0.0
1.0 NaN 52.9970922856118 1.0 1.0
2.0 NaN 26.714706269532275 1.0 1.0
3.0 62.601830004185835 24.71470626953221 1.0 1.0
4.0 59.530849813769706 22.714706269532154 1.0 1.0
5.0 57.863791834568374 20.71470626953209 1.0 1.0
6.0 56.016168235592254 18.71470626953203 1.0 1.0
7.0 54.275998845857984 21.714706269532083 1.0 1.0
8.0 52.52926834679134 19.714706269532027 1.0 1.0
9.0 50.84656755091121 22.71470626953208 1.0 1.0
10.0 49.074859458722116 20.71470626953202 1.0 1.0
11.0 47.269895122305 18.71470626953196 1.0 1.0
12.0 46.29218042117631 21.714706269532012 1.0 1.0
13.0 45.1441125805337 19.714706269531952 1.0 1.0
14.0 43.56926601895273 22.71470626953201 1.0 1.0
15.0 41.79356879248564 20.71470626953195 1.0 1.0
16.0 40.719604695110554 22.71470626953201 1.0 1.0
17.0 38.807805829015805 20.71470626953195 1.0 1.0
18.0 37.28298934720273 18.71470626953196 1.0 1.0
19.0 35.693820455922804 21.714706269532012 1.0 1.0
20.0 34.53328559822059 18.977532644108145 1.0 1.0
21.0 32.79612690614159 21.34205709570624 1.0 1.0
22.0 31.788950855139333 19.02571928625756 1.0 1.0
23.0 30.388335017135766 19.34426305811657 1.0 1.0
24.0 29.377958186657988 18.076570143771725 1.0 1.0
25.0 28.423091404933878 19.025495723341503 1.0 1.0
26.0 27.21611943106591 18.752014366159482 1.0 1.0
27.0 26.43556337834875 15.247017708439293 1.0 1.0
28.0 25.74473678670658 15.247017708439293 1.0 1.0
29.0 25.317623209020795 13.406065035749641 1.0 1.0
30.0 24.410963461917007 11.617814359165692 1.0 1.0
31.0 23.863022112392517 9.91083453727909 1.0 1.0
32.0 23.368974910215385 8.335206774076541 1.0 1.0
33.0 22.868568136830767 6.9804514687732615 1.0 1.0
34.0 22.44580023101076 5.998144167089187 1.0 1.0
35.0 22.31080185237387 5.588270232412998 1.0 1.0
36.0 22.314021922706107 5.8719498407054145 1.0 1.0
37.0 22.225452842729403 6.76245707365654 1.0 1.0
38.0 22.247443382352866 6.904380834864591 1.0 1.0
39.0 22.2710384565398 5.195157193126462 1.0 1.0
40.0 22.398528661608236 3.7827029766744866 1.0 1.0
41.0 22.718354657178224 3.1029059538101786 1.0 1.0
42.0 23.161785863080574 2.42766366648243 1.0 1.0
43.0 23.62286054756847 3.207924897231915 1.0 1.0
44.0 24.360704399480714 3.5214061891350203 1.0 1.0
45.0 25.079902310536347 3.68634174808433 1.0 1.0
46.0 25.97395851585419 2.695958619060979 1.0 1.0
47.0 26.797225625905842 2.2672138794827625 1.0 1.0
48.0 27.762024159485193 1.7253555124684845 1.0 1.0
49.0 28.912097967491967 2.76118183348088 1.0 1.0
50.0 29.9177236079339 1.0143784395500066 1.0 1.0
51.0 31.159634975794418 2.628199419459319 1.0 1.0
52.0 32.50620941725881 4.371320628788905 1.0 1.0
53.0 33.609732866601334 5.478992744435432 1.0 1.0
54.0 35.00964868897063 6.918450797885482 1.0 1.0
55.0 36.431214330249276 8.582846366498542 1.0 1.0
56.0 37.58589516301004 8.582846366498542 1.0 1.0
57.0 38.97419001448828 10.364175076848248 1.0 1.0
58.0 39.97139089802053 14.103520574867463 1.0 1.0
59.0 41.11421660069672 14.103520574867463 1.0 1.0
60.0 42.05897621481165 13.197744189628175 1.0 1.0
61.0 43.12249242671379 11.452905422274766 1.0 1.0
62.0 44.02904610347206 8.315420882010956 1.0 1.0
63.0 44.82488016465521 7.080594280262813 1.0 1.0
64.0 45.531472663335094 6.254870604448752 1.0 1.0
65.0 46.25757097598472 6.009325851965738 1.0 1.0
66.0 47.054660729031696 6.410974037680216 1.0 1.0
67.0 47.55017868891204 6.410974037680216 1.0 1.0
68.0 47.949060306786166 7.354534589524717 1.0 1.0
69.0 48.29990894417971 8.664742924358515 1.0 1.0
70.0 48.68297080594006 10.201292117272503 1.0 1.0
71.0 49.067691585741265 11.876655748931643 1.0 1.0
72.0 49.3970573330316 13.639777956232852 1.0 1.0
73.0 49.57032845273605 15.460664074095913 1.0 1.0
74.0 49.7287373809084 17.32110633096928 1.0 1.0
75.0 49.88178196992979 19.209615182128136 1.0 1.0
76.0 50.02722195856243 21.118662513572 1.0 1.0
77.0 50.032973870760564 23.043144257649704 1.0 1.0
78.0 50.02550431694693 24.979493353460104 1.0 1.0
79.0 50.04136354232602 26.92514956527187 1.0 1.0
80.0 50.10623806213953 28.878231767699393 1.0 1.0
81.0 50.12567058844753 30.83732901769647 1.0 1.0
82.0 50.09518762244172 32.80136356711973 1.0 1.0
83.0 50.00400402214829 34.41694411863674 1.0 1.0
84.0 50.13423943444003 34.072030572787995 2.0 2.0
85.0 50.24165956394904 33.8419930299714 2.0 2.0
86.0 50.29031625926524 33.72918198130908 2.0 2.0
87.0 50.25257336072061 33.72918198130908 2.0 2.0
88.0 50.261512710621695 33.734773483986785 2.0 2.0
89.0 50.309313868503054 34.09969782551108 2.0 2.0
90.0 50.308802053715894 34.09969782551108 2.0 2.0
91.0 50.28301726545146 34.45528430703773 2.0 2.0
92.0 50.25942392424677 34.921967893668814 2.0 2.0
93.0 50.27176401789391 34.921967893668814 2.0 2.0
94.0 50.42908767549397 34.921967893668814 2.0 2.0
95.0 50.52203702732013 33.96498355255313 2.0 2.0
96.0 50.585310489551844 32.95291173577807 2.0 2.0
97.0 50.57128763107717 32.999471573626735 2.0 2.0
98.0 50.62013232959854 33.0541342218332 2.0 2.0
99.0 50.67928704908109 33.009710054673064 2.0 2.0
100.0 50.610735042334994 32.69986604356889 2.0 2.0
101.0 50.467368468178606 34.15005608887372 1.0 2.0
102.0 50.364200383576126 34.15005608887372 1.0 2.0
103.0 50.29496899193813 35.73642159234223 1.0 2.0
104.0 50.2267948940946 35.53749609213796 1.0 2.0
105.0 50.13644235113551 35.53749609213796 1.0 2.0
106.0 50.114976070077645 33.641100017219074 1.0 2.0
107.0 50.065755900329776 31.78115212903088 1.0 2.0
108.0 50.15564186537253 29.95909205608733 1.0 2.0
109.0 50.22598865880091 28.18077113809072 1.0 2.0
110.0 50.23323045736416 28.18077113809072 1.0 2.0
111.0 50.3155006642781 29.983090027103778 1.0 2.0
112.0 50.35762279816595 31.789714574900604 1.0 2.0
113.0 50.405520798437536 33.60406330876107 1.0 2.0
114.0 50.44177596643186 35.41426273926093 1.0 2.0
115.0 50.34355307516748 36.68428347582385 1.0 2.0
116.0 50.274423671400804 35.59400678467194 1.0 2.0
117.0 50.31893225686405 33.98843368270256 1.0 2.0
118.0 50.53052830373501 32.41004031233901 1.0 2.0
119.0 50.60308398519928 30.850805492910446 1.0 2.0
120.0 50.65250300456969 29.312312117794 1.0 2.0
121.0 50.59479357788483 30.852563155351515 1.0 2.0
122.0 50.528992654788695 32.44938970074729 1.0 2.0
123.0 50.510415280051845 34.093242843614775 1.0 2.0
124.0 50.408070511360975 37.505905733108534 1.0 2.0
125.0 50.20272793193738 37.505905733108534 1.0 2.0
126.0 50.038180879641665 35.73783837881534 1.0 2.0
127.0 49.90339551265631 34.00020570091353 1.0 2.0
128.0 50.07497199576951 32.296615512873814 1.0 2.0
129.0 50.058623906106 30.635625826730912 1.0 2.0
130.0 50.12708399097338 30.626451154842155 1.0 2.0
131.0 50.227946557668304 30.623190125939576 1.0 2.0
132.0 50.33279557527369 32.27378243870792 1.0 2.0
133.0 50.53009672382827 33.960345662450045 1.0 2.0
134.0 50.72116579034229 33.960345662450045 1.0 2.0
135.0 50.63942481635253 35.67766412725301 1.0 2.0
136.0 50.4911217859945 35.67766412725301 1.0 2.0
137.0 50.44102024577616 35.67766412725301 1.0 2.0
138.0 50.331124431509004 35.67766412725301 1.0 2.0
139.0 50.17857077673124 33.978014273252484 1.0 2.0
140.0 50.11054703490885 32.31036460654338 1.0 2.0
141.0 50.0549886593896 30.68061829964142 1.0 2.0
142.0 50.068161022329136 30.688904958416146 1.0 2.0
143.0 50.14121486756699 30.69456509947133 1.0 2.0
144.0 50.31173445001928 30.697387613814996 1.0 2.0
145.0 50.43395340816293 30.69687479724896 1.0 2.0
146.0 50.618930158847334 32.33607590888571 1.0 2.0
147.0 50.6150291868674 34.014257804955555 1.0 2.0
148.0 50.55022083768328 35.7259743142343 1.0 2.0
149.0 50.48226844874911 35.7259743142343 1.0 2.0
150.0 50.373486426149135 35.7259743142343 1.0 2.0
151.0 50.225652650811966 35.40272991866689 1.0 2.0
152.0 50.09006414149726 31.803910560446045 1.0 2.0
153.0 50.017931581656335 28.29926133891708 1.0 2.0
154.0 50.07427901485128 26.438311963558146 1.0 2.0
155.0 50.1418546340942 26.438311963558146 1.0 2.0
156.0 50.152173893675716 26.438311963558146 1.0 2.0
157.0 50.148902787481376 23.9166475509795 0.0 2.0
158.0 50.3762739186937 20.797267361863085 0.0 2.0
159.0 50.45173475294797 19.359595456226707 0.0 2.0
160.0 50.59634446670758 19.359595456226707 0.0 2.0
161.0 50.516520898370025 19.359595456226707 0.0 2.0
162.0 50.320244822234415 19.359595456226707 0.0 2.0
163.0 50.35690131099409 19.359595456226707 0.0 2.0
164.0 50.33603745249168 18.424085142032247 0.0 2.0
165.0 49.96800221215589 16.8727983766515 0.0 2.0
166.0 49.67155597157827 15.426250747186346 0.0 2.0
167.0 49.59849153947854 12.82619741712324 1.0 3.0
168.0 49.70068293252357 10.678795580406197 1.0 3.0
169.0 49.76171042314169 9.692125688365099 1.0 3.0
170.0 49.92758008963512 10.208362727591458 1.0 3.0
171.0 49.98757883436686 12.03553783235149 1.0 3.0
172.0 50.10922138245998 12.03553783235149 1.0 3.0
173.0 50.29210351055023 12.03553783235149 1.0 3.0
174.0 50.39084896956955 12.03553783235149 1.0 3.0
175.0 50.4999934234777 12.03553783235149 1.0 3.0
176.0 50.54588609723288 12.03553783235149 1.0 3.0
177.0 50.37988339809957 13.039308190270587 1.0 3.0
178.0 50.22907997513589 14.17016929036884 1.0 3.0
179.0 50.105092005550105 16.366950271466987 1.0 3.0
180.0 50.15611179806671 18.35488513735682 1.0 3.0
181.0 50.15754404064097 18.35488513735682 1.0 3.0
182.0 50.21033687347886 20.315401779542185 1.0 3.0
183.0 50.152437191525536 19.485638073382244 1.0 3.0
184.0 50.189172572283766 20.623219950372484 1.0 3.0
185.0 50.300298451212896 20.111683275099004 1.0 3.0
186.0 50.342980983259885 21.322753166067947 1.0 3.0
187.0 50.17653146005122 21.138010434324098 1.0 3.0
188.0 50.23443820268457 22.534895414487412 1.0 3.0
189.0 50.11644024719196 22.534895414487412 1.0 3.0
190.0 50.16116742114045 22.534895414487412 1.0 3.0
191.0 50.14302216911603 24.006871238114503 1.0 3.0
192.0 50.230421744046026 24.006871238114503 1.0 3.0
193.0 50.23855779396972 24.006871238114503 1.0 3.0
194.0 50.39620750059833 25.307875920331075 1.0 3.0
195.0 50.467848154613556 25.210977295228954 1.0 3.0
196.0 50.49457426565215 26.584711571991395 1.0 3.0
197.0 50.45833090615901 27.966872060046935 0.0 3.0
198.0 50.27698882663334 29.36023830591219 0.0 3.0
199.0 50.19096295010867 30.75125961101111 0.0 3.0
200.0 50.21717252664807 31.998546179078016 0.0 3.0
201.0 50.00270834722958 32.08793617122567 0.0 3.0
202.0 50.046966840839886 32.08793617122567 0.0 3.0
203.0 49.976962365332966 32.08793617122567 0.0 3.0
204.0 49.991104983652946 32.08793617122567 0.0 3.0
205.0 49.99976566540351 32.08793617122567 0.0 3.0
206.0 50.05748915705622 32.08793617122567 0.0 3.0
207.0 49.942760602004995 32.11765450849093 0.0 3.0
208.0 49.79509013522493 33.49932961903016 0.0 3.0
209.0 49.726702228540624 34.88857382687958 0.0 3.0
210.0 49.663735474153 36.285130571412985 0.0 3.0
211.0 49.67452494038047 36.86103008683329 0.0 3.0
212.0 49.68426651729026 36.86103008683329 0.0 3.0
213.0 49.71603655321474 36.86103008683329 0.0 3.0
214.0 49.89196705274843 30.231929392635884 0.0 3.0
215.0 49.91443358436814 30.25144405856333 0.0 3.0
216.0 50.01376167120952 31.48889983302653 0.0 3.0
217.0 50.0523609496065 32.797702475028466 0.0 3.0
218.0 50.027385213570284 32.95515712854045 0.0 3.0
219.0 49.90552366941576 31.322014065910807 0.0 3.0
220.0 49.92848878300242 29.377999179821476 0.0 3.0
221.0 49.753901374034456 27.442022132877277 0.0 3.0
222.0 49.76498865120987 25.51591528553757 0.0 3.0
223.0 49.69737381303163 23.602089323500977 0.0 3.0
224.0 49.711538866480346 21.703792109188704 0.0 3.0
225.0 49.70641049276219 21.703792109188704 0.0 3.0
226.0 49.697022184326464 21.703792109188704 0.0 3.0
227.0 49.72607971035604 20.26998437875685 0.0 3.0
228.0 49.77111037404517 18.939064936841678 0.0 3.0
229.0 49.79187500566958 17.73422711002336 0.0 3.0
230.0 49.87864229373717 16.682819445567926 0.0 3.0
231.0 49.907332185209945 15.815437110357161 0.0 3.0
232.0 49.91157466085651 14.00220216173114 0.0 3.0
233.0 49.91260308426753 13.141689327197954 0.0 3.0
234.0 49.818199158257926 12.735147768758209 0.0 3.0
235.0 49.84823565015674 12.635839890482783 0.0 3.0
236.0 49.75047251374752 12.850871985344995 0.0 3.0
237.0 49.63499436895087 13.365098008273165 0.0 3.0
238.0 49.57305525935931 14.14591031916185 0.0 3.0
239.0 49.55128885151636 14.14591031916185 0.0 3.0
240.0 49.59558923386829 15.72889812535417 0.0 3.0
241.0 49.64171971533232 17.39799473774534 0.0 3.0
242.0 49.82210329207193 19.130671441682686 0.0 3.0
243.0 50.027868574371894 20.91112045598257 0.0 3.0
244.0 50.16976270394566 22.728132296712786 0.0 3.0
245.0 50.07497306781537 22.728132296712786 0.0 3.0
246.0 49.96816875947371 24.14183757492395 0.0 3.0
247.0 49.795853546380236 25.63373891750335 0.0 3.0
248.0 49.82677045131559 27.19096845403706 0.0 3.0
249.0 49.64680547423318 28.802932454475947 0.0 3.0
250.0 49.539145973530395 30.46094043722274 0.0 3.0
251.0 49.497518879729455 34.140262489404144 1.0 4.0
252.0 49.62747377651593 37.86762308664951 1.0 4.0
253.0 49.63272491319794 38.12137163922092 1.0 4.0
254.0 49.617009271466685 36.98962293222437 1.0 4.0
255.0 49.64394617988393 35.949347834017715 1.0 4.0
256.0 49.83219386066691 35.949347834017715 1.0 4.0
257.0 49.93582772904377 35.949347834017715 1.0 4.0
258.0 50.00878607714425 32.81595738938687 1.0 4.0
259.0 49.96441993336511 32.81595738938687 1.0 4.0
260.0 49.945768164796235 34.17772586642564 1.0 4.0
261.0 49.911390662188815 38.14762340741807 1.0 4.0
262.0 49.95029637527626 37.0699456707683 1.0 4.0
263.0 49.75738290609179 37.097815873276815 1.0 4.0
264.0 49.59919689532714 37.11746882353713 1.0 4.0
265.0 49.46053693802432 37.12873126187187 1.0 4.0
266.0 49.47768339399279 37.24557405616503 1.0 4.0
267.0 49.5175934922697 38.179749918020846 1.0 4.0
268.0 49.59676719203163 38.222366082838455 1.0 4.0
269.0 49.65866166080794 38.222366082838455 1.0 4.0
270.0 49.86969908778707 38.222366082838455 1.0 4.0
271.0 50.02931173130875 37.722404850905065 1.0 4.0
272.0 50.12110421683581 37.08761886960259 1.0 4.0
273.0 50.11123328358534 36.55193028813938 1.0 4.0
274.0 49.993802252923864 36.09604432890773 1.0 4.0
275.0 49.89903992153592 35.642032837735556 1.0 4.0
276.0 49.856414935716224 35.18985013056963 1.0 4.0
277.0 49.71082273312426 35.287635049922805 1.0 4.0
278.0 49.59263562185284 35.49926512905959 1.0 4.0
279.0 49.513998355802514 35.8227817162994 1.0 4.0
280.0 49.647918955009985 36.25539007155399 1.0 4.0
281.0 49.741014616706074 36.25539007155399 1.0 4.0
282.0 49.72458091482039 36.25539007155399 1.0 4.0
283.0 49.675400281197504 36.25539007155399 1.0 4.0
284.0 49.89695777205589 35.395151722759636 1.0 4.0
285.0 49.94210426048635 34.628878534688035 1.0 4.0
286.0 50.037910384765404 34.19807910429785 1.0 4.0
287.0 49.89359746667739 33.76696358705072 1.0 4.0
288.0 49.902049959955136 33.33551001135419 1.0 4.0
289.0 49.88370197544245 32.904099757446545 1.0 4.0
290.0 49.827793416065944 32.04908031812974 1.0 4.0
291.0 49.67148396901192 32.04908031812974 1.0 4.0
292.0 49.66953135278143 32.04908031812974 1.0 4.0
293.0 49.667772859876756 32.04908031812974 1.0 4.0
294.0 49.74188582089068 30.614568550358193 1.0 4.0
295.0 49.72230160900834 29.24653940255369 1.0 4.0
296.0 49.70646414247087 27.954755005551597 1.0 4.0
297.0 49.63133783084326 26.750263335199797 1.0 4.0
298.0 49.708319914559965 24.000838372041464 1.0 4.0
299.0 49.66375917718919 21.61053270527835 1.0 4.0
300.0 49.661494314402994 19.710434600421415 1.0 4.0
301.0 49.701094261851956 18.584075194349143 1.0 4.0
302.0 49.969115307392336 17.613474126867434 1.0 4.0
303.0 49.970248090760876 16.825608225583068 1.0 4.0
304.0 50.042128460930634 16.24708327825523 1.0 4.0
305.0 49.917166391169246 16.24708327825523 1.0 4.0
306.0 49.8083318978503 16.24708327825523 1.0 4.0
307.0 49.70544141394545 16.24708327825523 1.0 4.0
308.0 49.68171200515577 16.75903548588416 1.0 4.0
309.0 49.52570150207027 17.486075188184522 1.0 4.0
310.0 49.58934409187128 18.402727524165858 1.0 4.0
311.0 49.77837336463659 19.48224665701361 1.0 4.0
312.0 49.92026443772602 21.297891427418985 1.0 4.0
313.0 50.04165431158987 23.625275620540748 1.0 4.0
314.0 50.160637534110286 24.628316022953253 1.0 4.0
315.0 50.15677945590595 23.602208707694892 1.0 4.0
316.0 50.23492560881179 21.3064832761596 1.0 4.0
317.0 50.10637706612722 19.528937052822922 1.0 4.0
318.0 49.90945885339592 18.420198540233052 1.0 4.0
319.0 49.585062469548106 18.420198540233052 1.0 4.0
320.0 49.44956924447258 18.420198540233052 1.0 4.0
321.0 49.3597775871455 18.420198540233052 1.0 4.0
322.0 49.572834261827495 18.420198540233052 1.0 4.0
323.0 49.65127727244908 18.420198540233052 1.0 4.0
324.0 49.75598808638976 18.420198540233052 1.0 4.0
325.0 50.01007705441755 18.420198540233052 1.0 4.0
326.0 50.1782277671508 18.103567773789678 1.0 4.0
327.0 50.23515960139127 18.619502208303924 1.0 4.0
328.0 50.1570119876803 19.90336149490466 1.0 4.0
329.0 49.966110088757866 21.82001310861388 1.0 4.0
330.0 50.00575998908878 20.534686124890978 1.0 4.0
331.0 49.912485713689186 18.4687744350902 1.0 4.0
332.0 49.764228288477774 16.473605424952474 1.0 4.0
333.0 49.596446861758636 16.50800423478982 1.0 4.0
334.0 49.57937341474397 16.78249381808526 2.0 5.0
335.0 49.611151353513165 16.78249381808526 2.0 5.0
336.0 49.73846000439444 16.78249381808526 2.0 5.0
337.0 49.747967742274085 16.78249381808526 2.0 5.0
338.0 49.86441669891325 14.801721825680145 2.0 5.0
339.0 50.08595354790135 12.826918540761419 2.0 5.0
340.0 50.137670834519874 10.861340133458613 2.0 5.0
341.0 50.125902954736475 8.911093071712697 2.0 5.0
342.0 50.00172222996352 7.289021143812913 2.0 5.0
343.0 49.94570323349284 8.087812696275567 2.0 5.0
344.0 49.82452914458915 9.257172398858701 2.0 5.0
345.0 49.67043723165031 10.676024339994417 2.0 5.0
346.0 49.56352063142052 12.25802470397559 2.0 5.0
347.0 49.584250223165796 13.947768100500129 2.0 5.0
348.0 49.697486743192904 15.710525032513408 2.0 5.0
349.0 49.8463250619591 14.361578690490063 2.0 5.0
350.0 50.038195012477196 13.179123194083116 2.0 5.0
351.0 50.02455737140554 12.211618805192947 2.0 5.0
352.0 50.16325313315172 11.513382627161041 2.0 5.0
353.0 50.09252481360083 11.135184111210393 2.0 5.0
354.0 50.109379531094255 12.972212118830717 2.0 5.0
355.0 49.90670725938213 14.947295822862626 2.0 5.0
356.0 49.79862460226253 16.783971615678034 2.0 5.0
357.0 49.709880408584866 18.654261601322016 2.0 5.0
358.0 49.71721325344605 20.548988971216236 2.0 5.0
359.0 49.70030409850969 20.548988971216236 2.0 5.0
360.0 49.784566198810595 20.548988971216236 2.0 5.0
361.0 49.75789140740953 20.548988971216236 2.0 5.0
362.0 49.84849477560674 20.548988971216236 2.0 5.0
363.0 49.86369607897329 20.548988971216236 2.0 5.0
364.0 49.968356826577875 20.548988971216236 2.0 5.0
365.0 49.90933690874529 19.694032000800163 2.0 5.0
366.0 49.86095705415473 20.93059935116918 2.0 5.0
367.0 49.79965776961541 22.071171129443872 2.0 5.0
368.0 49.79044442293089 23.158323135611155 2.0 5.0
369.0 49.80000787759708 24.116716154230325 2.0 5.0
370.0 49.8503114510562 25.820459992260208 2.0 5.0
371.0 49.951088166282496 27.56404351998827 2.0 5.0
372.0 49.99006920086072 29.340365250951265 2.0 5.0
373.0 50.122679566003434 29.340365250951265 2.0 5.0
374.0 50.059408158492175 29.340365250951265 2.0 5.0
375.0 49.89034343208623 29.340365250951265 2.0 5.0
376.0 49.887290137661495 29.340365250951265 2.0 5.0
377.0 49.8543770056987 29.340365250951265 2.0 5.0
378.0 49.86816261937282 29.340365250951265 2.0 5.0
379.0 49.84224150019448 29.340365250951265 2.0 5.0
380.0 49.89408146151618 30.26735868441245 2.0 5.0
381.0 49.95662392745339 30.198589760184113 2.0 5.0
382.0 50.09974612397673 30.13072082429783 2.0 5.0
383.0 50.02159703689954 30.063757973816102 2.0 5.0
384.0 50.02889313370407 29.997707271686632 2.0 5.0
385.0 49.892009336501005 29.932574758478896 2.0 5.0
386.0 49.814218169344876 29.86836644096714 2.0 5.0
387.0 49.730877271420724 29.86836644096714 2.0 5.0
388.0 49.806114559965955 29.86836644096714 2.0 5.0
389.0 49.790177450950004 29.86836644096714 2.0 5.0
