#####################################################################
# Alchemist log file - simulation started at: 2023-03-03T08:05+0000 #
#####################################################################
#
# random = 33.0
#
# The columns have the following meaning: 
# time avgDistanceTeam[mean] minDistance[min] inDanger dangerTriggered 
0.0 NaN NaN 0.0 0.0
0.0 NaN NaN 0.0 0.0
1.0 NaN 49.1059850357599 1.0 1.0
2.0 NaN 48.9172504299597 1.0 1.0
3.0 64.55908539251685 46.91725042995978 1.0 1.0
4.0 60.3867908820047 44.91725042995986 1.0 1.0
5.0 58.66909397151357 42.917250429959935 1.0 1.0
6.0 56.75421423157416 40.917250429960006 1.0 1.0
7.0 54.872428390435935 38.917250429960085 1.0 1.0
8.0 53.070677231185556 36.91725042996016 1.0 1.0
9.0 51.312915696324694 34.917250429960234 1.0 1.0
10.0 49.484140532107745 32.91725042996031 1.0 1.0
11.0 48.32641083900499 30.917250429960387 1.0 1.0
12.0 47.30088928746242 28.91725042996046 1.0 1.0
13.0 45.549249578492386 26.91725042996054 1.0 1.0
14.0 43.7732027040289 24.917250429960614 1.0 1.0
15.0 42.82801119551577 22.917250429960692 1.0 1.0
16.0 41.524446451052484 20.917250429960767 1.0 1.0
17.0 39.777249840187444 18.91725042996084 1.0 1.0
18.0 38.39560010270706 21.54605888255773 1.0 1.0
19.0 36.80611119710792 19.547537609092856 1.0 1.0
20.0 35.222170954839996 18.492560025255532 1.0 1.0
21.0 34.022221605093826 18.254889574183192 1.0 1.0
22.0 32.79375633991465 18.254889574183192 1.0 1.0
23.0 31.270348085527736 18.523712587126322 1.0 1.0
24.0 30.263251093278416 18.320707568041648 1.0 1.0
25.0 29.08396621283606 17.75769182999117 1.0 1.0
26.0 27.988332001463824 18.504288032791674 1.0 1.0
27.0 27.33315468272572 18.473656113001724 1.0 1.0
28.0 26.424509294318195 17.471466861652303 1.0 1.0
29.0 26.082986394724394 19.470978923015366 1.0 1.0
30.0 25.042689469554478 18.829402911642266 1.0 1.0
31.0 24.652934314293823 17.586275952099214 1.0 1.0
32.0 23.89468515012044 15.77962859974451 1.0 1.0
33.0 23.647302532839554 14.025557230583265 1.0 1.0
34.0 23.08143305318743 12.346490696179938 1.0 1.0
35.0 22.767562968070155 10.777541899401218 1.0 1.0
36.0 22.643714512231337 9.374165897606012 1.0 1.0
37.0 22.37512543334546 8.221591278963581 1.0 1.0
38.0 22.28528118321658 7.43734764824263 1.0 1.0
39.0 22.296139870905204 6.869535523698464 1.0 1.0
40.0 22.416117074825188 7.013505585025955 1.0 1.0
41.0 22.698817518351635 8.15308964063864 1.0 1.0
42.0 22.99022943544526 8.485703571039165 1.0 1.0
43.0 23.322738611768884 8.22147934171151 1.0 1.0
44.0 23.75869609136043 7.4282015372659425 1.0 1.0
45.0 24.396362334415322 7.685613968314333 1.0 1.0
46.0 25.207463837899297 6.486248927184494 1.0 1.0
47.0 25.84858725772872 5.43679776325201 1.0 1.0
48.0 26.423404314732945 4.784060526380829 1.0 1.0
49.0 27.16172897890001 6.2513769980511515 1.0 1.0
50.0 27.980880423866186 6.222008298499326 1.0 1.0
51.0 28.925801362986206 2.991807699013564 1.0 1.0
52.0 30.001703800832654 3.1129949259588705 1.0 1.0
53.0 30.92027332805297 4.034770794489303 1.0 1.0
54.0 32.046454726995734 5.874335494302236 1.0 1.0
55.0 33.202948543211235 4.272608271711021 1.0 1.0
56.0 34.2169774209013 3.162680095641613 1.0 1.0
57.0 35.446260771144594 3.1978939019948682 1.0 1.0
58.0 36.510043622619705 3.948118191448745 1.0 1.0
59.0 37.85380933291359 3.948118191448745 1.0 1.0
60.0 39.0101792764689 4.730874723199696 1.0 1.0
61.0 40.28674213189753 6.097107022151664 1.0 1.0
62.0 41.4181457614754 9.526898279371618 1.0 1.0
63.0 42.54966837727769 11.382237443422772 1.0 1.0
64.0 43.58459886144913 13.279641094977514 1.0 1.0
65.0 44.586170903323236 15.203368245371667 1.0 1.0
66.0 45.477613969797254 17.144560198422568 1.0 1.0
67.0 46.17041453860223 19.097892103326345 1.0 1.0
68.0 46.95976013635241 21.05998625790753 1.0 1.0
69.0 47.595344128216276 23.028603074789686 1.0 1.0
70.0 47.999965604799286 23.028603074789686 1.0 1.0
71.0 48.43711514122974 25.002201862419472 1.0 1.0
72.0 48.75588997570041 26.979689330348673 1.0 1.0
73.0 49.1517068115949 30.7177876841911 1.0 1.0
74.0 49.35545615634462 31.150826248531104 1.0 1.0
75.0 49.55284284178362 31.583877358663326 1.0 1.0
76.0 49.746416199885616 31.951015161862347 1.0 1.0
77.0 49.96314752633867 32.016940505424174 1.0 1.0
78.0 50.10415528215898 32.20716673012677 1.0 1.0
79.0 50.29902795115702 32.519512576859114 1.0 1.0
80.0 50.54795823767906 32.95050542390528 1.0 1.0
81.0 50.76236802589675 33.49556563405258 1.0 1.0
82.0 50.930497767233106 34.149231713165044 1.0 1.0
83.0 50.99330410981977 34.149231713165044 1.0 1.0
84.0 51.02355925862641 34.149231713165044 2.0 2.0
85.0 51.01531924075589 34.149231713165044 2.0 2.0
86.0 50.86691938213961 34.149231713165044 2.0 2.0
87.0 50.58964758790723 34.149231713165044 2.0 2.0
88.0 50.26541437566208 34.149231713165044 2.0 2.0
89.0 50.08550712666556 34.59938280010085 2.0 2.0
90.0 49.983732534735125 34.48711310360286 2.0 2.0
91.0 49.975088874355336 34.391173022932946 2.0 2.0
92.0 50.04692946013601 34.31175144042346 2.0 2.0
93.0 50.17420893252963 34.2473993873487 2.0 2.0
94.0 50.42231647083507 33.71146640575372 2.0 2.0
95.0 50.55041949910829 33.301746920230876 2.0 2.0
96.0 50.628453069495805 33.025169546593915 2.0 2.0
97.0 50.654909561305544 33.025169546593915 2.0 2.0
98.0 50.6372878519098 33.025169546593915 2.0 2.0
99.0 50.56012547675637 33.025169546593915 2.0 2.0
100.0 50.49174715658754 33.307147392094286 2.0 2.0
101.0 50.298370993316446 33.704399660856275 2.0 2.0
102.0 50.15678293885995 34.21321761761946 2.0 2.0
103.0 50.00620271374976 34.82891250383937 2.0 2.0
104.0 50.00817170267885 34.867845693503554 2.0 2.0
105.0 50.07272386019458 34.899869934250965 2.0 2.0
106.0 50.19126864833694 33.66272218715817 2.0 2.0
107.0 50.38357895177868 30.724194671378058 2.0 2.0
108.0 50.49723615605164 28.042341842371542 2.0 2.0
109.0 50.69849136441216 25.696490307020024 2.0 2.0
110.0 50.80400936060369 23.78650187321479 2.0 2.0
111.0 50.78164128941862 23.15866447980378 2.0 2.0
112.0 50.70027112728835 22.69489852562606 2.0 2.0
113.0 50.54976219497258 22.69489852562606 2.0 2.0
114.0 50.32413756286668 22.69489852562606 2.0 2.0
115.0 50.15971635363715 22.69489852562606 2.0 2.0
116.0 49.96547381307295 22.69489852562606 2.0 2.0
117.0 50.01387454498415 22.69489852562606 2.0 2.0
118.0 50.06148736659752 22.10691257025058 2.0 2.0
119.0 50.196475039522745 21.762279680515192 2.0 2.0
120.0 50.4239486888125 21.712996463941263 2.0 2.0
121.0 50.600763099232736 22.454741602275696 2.0 2.0
122.0 50.711858811997764 23.852785620193615 2.0 2.0
123.0 50.96406912050942 25.8012475163089 2.0 2.0
124.0 50.77815528198146 27.058886356194186 2.0 2.0
125.0 50.58404308166693 28.400421744896196 2.0 2.0
126.0 50.38989304829665 29.81433757333648 2.0 2.0
127.0 50.22442910911487 29.81433757333648 2.0 2.0
128.0 50.04786704440099 29.81433757333648 2.0 2.0
129.0 50.04397576064642 29.81433757333648 2.0 2.0
130.0 49.922264233753836 31.106744377698522 2.0 2.0
131.0 50.109083616150066 32.46975372980689 2.0 2.0
132.0 50.27711045846586 33.54414750844941 2.0 2.0
133.0 50.45506415131439 32.99756215426357 2.0 2.0
134.0 50.65155520528414 31.73823327890063 2.0 2.0
135.0 50.74045812407476 30.720714245706347 2.0 2.0
136.0 50.818937510818195 29.96944399125529 2.0 2.0
137.0 50.81435248665713 29.504635486116285 2.0 2.0
138.0 50.56623662083912 29.340344362897845 2.0 2.0
139.0 50.42721077519735 29.481621478602136 2.0 2.0
140.0 50.20886234717422 29.505504093307458 2.0 2.0
141.0 50.11311881644787 29.56321258917562 2.0 2.0
142.0 50.05323695037429 29.65454948882887 2.0 2.0
143.0 50.07583610584737 29.779205365120298 2.0 2.0
144.0 50.14233952103921 30.61179431433778 2.0 2.0
145.0 50.363225944771806 31.705964959913 2.0 2.0
146.0 50.539854418391634 33.03581348335361 2.0 2.0
147.0 50.719825985966104 33.808231087260744 2.0 2.0
148.0 50.71912567845096 33.417587496175656 2.0 2.0
149.0 50.69841852722203 33.14410296811804 2.0 2.0
150.0 50.53558164615595 32.99082329311187 2.0 2.0
151.0 50.51691144464637 33.14401943531472 2.0 2.0
152.0 50.30528526867587 33.41641030946573 2.0 2.0
153.0 50.29488437036754 33.80513173488037 2.0 2.0
154.0 50.21761741668957 34.30621698639269 2.0 2.0
155.0 50.21241228040435 34.91482033886318 2.0 2.0
156.0 50.28916027137215 35.44682080170394 2.0 2.0
157.0 50.43191878198544 34.00672401071893 2.0 2.0
158.0 50.418245341176714 34.00672401071893 2.0 2.0
159.0 50.62700333379136 34.00672401071893 2.0 2.0
160.0 50.69494562294103 33.810625334127536 2.0 2.0
161.0 50.74439549195669 33.42305820540866 2.0 2.0
162.0 50.67314955246226 33.15182127907188 2.0 2.0
163.0 50.54605544207866 33.1522638800967 2.0 2.0
164.0 50.42472327021064 33.152348182263125 2.0 2.0
165.0 50.41704966956306 33.42451962246977 2.0 2.0
166.0 50.395863252105485 33.81300875117291 2.0 2.0
167.0 50.411236279885735 34.31385979297738 3.0 3.0
168.0 50.39958721181269 34.31385979297738 3.0 3.0
169.0 50.38910097561159 34.31385979297738 3.0 3.0
170.0 50.58621551586442 34.31385979297738 3.0 3.0
171.0 50.6838493662708 34.31385979297738 3.0 3.0
172.0 50.59976602619938 33.812183250394774 3.0 3.0
173.0 50.6219009105881 33.42296957615466 3.0 3.0
174.0 50.64765459716354 33.422405194438156 3.0 3.0
175.0 50.69112825421827 33.421905336402105 3.0 3.0
176.0 50.681233217775876 33.42155119036808 3.0 3.0
177.0 50.664052324082235 33.421351344485835 2.0 3.0
178.0 50.68932685495994 33.80988999491139 2.0 3.0
179.0 50.74485684409148 33.80988999491139 2.0 3.0
180.0 50.61819874037873 33.80988999491139 2.0 3.0
181.0 50.582829863452 33.80988999491139 2.0 3.0
182.0 50.448030039867014 33.80988999491139 2.0 3.0
183.0 50.373066930698286 33.80988999491139 2.0 3.0
184.0 50.36386959707736 33.80988999491139 2.0 3.0
185.0 50.40659277600358 34.31081392660764 2.0 3.0
186.0 50.42502374188743 34.113533400243504 2.0 3.0
187.0 50.52694050680758 33.011191503763165 2.0 3.0
188.0 50.64699552744862 31.70264853249592 2.0 3.0
189.0 50.73793482309763 30.483420295221364 2.0 3.0
190.0 50.730103351429236 30.483420295221364 2.0 3.0
191.0 50.75832549009321 30.483420295221364 2.0 3.0
192.0 50.78419373983358 30.483420295221364 2.0 3.0
193.0 50.78191653707798 30.483420295221364 2.0 3.0
194.0 50.7084104216811 30.483420295221364 2.0 3.0
195.0 50.70994275216773 29.150842037564722 2.0 3.0
196.0 50.7153013982455 27.845394297482635 2.0 3.0
197.0 50.766517070757196 26.559864151536953 2.0 3.0
198.0 50.80615289165872 25.291863894106022 2.0 3.0
199.0 50.832017261913656 24.05639507228608 2.0 3.0
200.0 50.752944342763556 24.546453521598195 2.0 3.0
201.0 50.89346384790225 24.546453521598195 2.0 3.0
202.0 50.781901772714484 24.546453521598195 2.0 3.0
203.0 50.79829560001476 24.546453521598195 2.0 3.0
204.0 50.66619162129218 24.546453521598195 2.0 3.0
205.0 50.683014409962844 24.546453521598195 2.0 3.0
206.0 50.630572133572905 23.066229398168478 2.0 3.0
207.0 50.7601581632196 21.670556943286595 2.0 3.0
208.0 50.72351859043849 20.59087415546051 2.0 3.0
209.0 50.844333317370804 19.525939688529636 2.0 3.0
210.0 50.91664143117083 18.46807143868294 2.0 3.0
211.0 50.9743851013346 17.422859114156715 2.0 3.0
212.0 51.07179888514137 17.987613447681944 2.0 3.0
213.0 51.112304333902024 17.987613447681944 2.0 3.0
214.0 51.01434043117519 17.7984997889927 2.0 3.0
215.0 50.92916016514026 16.8001382170022 2.0 3.0
216.0 50.78105054998424 15.990704920076372 2.0 3.0
217.0 50.636088085394825 15.40001964636534 2.0 3.0
218.0 50.4803172169705 15.402850293822286 2.0 3.0
219.0 50.44144150478316 16.39977331223747 2.0 3.0
220.0 50.47538110816339 15.991301749874868 2.0 3.0
221.0 50.57932525412597 15.06329990142966 2.0 3.0
222.0 50.52147506517204 14.191990523947915 2.0 3.0
223.0 50.76550067381863 13.39026970994577 2.0 3.0
224.0 50.7426713439469 12.669987684559484 2.0 3.0
225.0 50.78626525980846 10.739657131184384 2.0 3.0
226.0 50.861194040824586 10.739657131184384 2.0 3.0
227.0 50.86823499595247 10.739657131184384 2.0 3.0
228.0 50.692607410308256 10.739657131184384 2.0 3.0
229.0 50.661559140118655 10.739657131184384 2.0 3.0
230.0 50.71445713101434 12.056186410022791 2.0 3.0
231.0 50.790040507843635 11.542856103991383 2.0 3.0
232.0 50.68341820785609 11.144893187119049 2.0 3.0
233.0 50.44832843881797 10.874954427016368 2.0 3.0
234.0 50.52568230271005 10.743470378123137 2.0 3.0
235.0 50.510285407173164 8.832715128273204 2.0 3.0
236.0 50.38154656708906 8.832715128273204 2.0 3.0
237.0 50.37836570843228 8.832715128273204 2.0 3.0
238.0 50.38325297683856 8.832715128273204 2.0 3.0
239.0 50.48197848133157 8.832715128273204 2.0 3.0
240.0 50.59691388675772 7.904110098220483 2.0 3.0
241.0 50.575921969349665 6.049932038599798 2.0 3.0
242.0 50.58384265995173 4.326415784381236 2.0 3.0
243.0 50.626546885505924 2.968439604091662 2.0 3.0
244.0 50.57868868836428 2.623345559062319 2.0 3.0
245.0 50.54481831463864 3.5951573524412797 2.0 3.0
246.0 50.436727680805056 3.5951573524412797 2.0 3.0
247.0 50.372097011300916 3.5951573524412797 2.0 3.0
248.0 50.369436993959674 7.2802887786626975 2.0 3.0
249.0 50.465148832395066 7.2802887786626975 2.0 3.0
250.0 50.50339930297444 9.221785523786494 2.0 3.0
251.0 50.587243540325716 10.801973258013989 3.0 4.0
252.0 50.69443264995007 12.545502044318903 3.0 4.0
253.0 50.82155124906643 14.356163071827865 3.0 4.0
254.0 50.80315588803444 16.211455194077484 3.0 4.0
255.0 50.574652653218905 18.09769809654754 3.0 4.0
256.0 50.40880430037015 15.000016852664695 3.0 4.0
257.0 50.27413256465801 11.61577567343721 3.0 4.0
258.0 50.09901687898123 11.61577567343721 3.0 4.0
259.0 50.07972984307477 11.61577567343721 3.0 4.0
260.0 50.03494046652349 11.61577567343721 3.0 4.0
261.0 50.124798750894456 11.61577567343721 3.0 4.0
262.0 50.16009954347605 11.61577567343721 3.0 4.0
263.0 50.20429314089431 11.61577567343721 3.0 4.0
264.0 50.185182612766184 10.104486252700653 3.0 4.0
265.0 50.19528905672424 7.761969408864772 3.0 4.0
266.0 50.136941761880024 7.099513073523798 3.0 4.0
267.0 50.07713247509787 9.786434422447229 3.0 4.0
268.0 49.94726496814734 9.786434422447229 3.0 4.0
269.0 49.97443483367737 12.882519264761012 3.0 4.0
270.0 49.98850099103024 16.375542410184483 3.0 4.0
271.0 50.129116185173494 18.196680943286516 3.0 4.0
272.0 50.16814861635894 20.051932711730863 3.0 4.0
273.0 50.32199038716806 20.051932711730863 3.0 4.0
274.0 50.43003293055333 20.051932711730863 3.0 4.0
275.0 50.50279422705074 20.051932711730863 3.0 4.0
276.0 50.45550477736443 20.051932711730863 3.0 4.0
277.0 50.40264835782377 20.051932711730863 3.0 4.0
278.0 50.32356384321715 21.939787825404892 3.0 4.0
279.0 50.19840608613099 21.03191622346132 3.0 4.0
280.0 50.02423552018617 19.004829810792376 3.0 4.0
281.0 50.06796218617108 17.263406704732276 3.0 4.0
282.0 50.11742299582465 15.901775522833281 3.0 4.0
283.0 50.14489480263189 15.556674358445523 3.0 4.0
284.0 50.296686363753366 15.269373576242515 3.0 4.0
285.0 50.38146592983182 15.043185225443107 3.0 4.0
286.0 50.33920229437309 14.88089627821948 3.0 4.0
287.0 50.32466565622675 14.784611133177055 3.0 4.0
288.0 50.373822009935054 14.880341928717023 3.0 4.0
289.0 50.30572386674122 15.564832934334753 3.0 4.0
290.0 50.17125626239378 15.947866452988087 3.0 4.0
291.0 50.18674161487227 14.661259670430749 3.0 4.0
292.0 50.152926622470716 14.872901724696371 3.0 4.0
293.0 50.124589727130676 15.147735022146154 3.0 4.0
294.0 50.06714123458633 15.482394740150172 3.0 4.0
295.0 49.99528485146513 15.873097286872087 3.0 4.0
296.0 49.9763819269127 16.315817113071045 3.0 4.0
297.0 50.051173333987286 16.806443962238298 3.0 4.0
298.0 50.22100459747336 15.472240840322534 3.0 4.0
299.0 50.298123119964416 14.138698422326039 3.0 4.0
300.0 50.35031091343038 12.806023193544974 3.0 4.0
301.0 50.42904729189235 11.474517287443406 3.0 4.0
302.0 50.44152480868714 10.144641207162412 3.0 4.0
303.0 50.321638971946165 10.729008570049231 3.0 4.0
304.0 50.19516472197105 11.371433707775012 3.0 4.0
305.0 50.05423230055708 12.062644164711703 3.0 4.0
306.0 49.97174940450941 12.794735789323067 3.0 4.0
307.0 49.94956224163055 11.522018151307583 3.0 4.0
308.0 49.95071147876899 11.522018151307583 3.0 4.0
309.0 50.082897023608275 10.205914611518255 3.0 4.0
310.0 50.21539413688027 9.141361158829767 3.0 4.0
311.0 50.42183733844645 8.424267007564268 3.0 4.0
312.0 50.592118887449274 7.972986656707107 3.0 4.0
313.0 50.63901223026729 7.087894929601085 3.0 4.0
314.0 50.624094828351666 8.072967176611881 3.0 4.0
315.0 50.57516209757614 8.993955925155829 3.0 4.0
316.0 50.4318117862917 10.000046474141376 3.0 4.0
317.0 50.24404353652062 11.044294116846775 3.0 4.0
318.0 50.088467757349996 12.037897534079745 3.0 4.0
319.0 50.08388476290346 13.03247948560019 3.0 4.0
320.0 50.026427640129896 12.362475694033417 3.0 4.0
321.0 50.02245437094677 11.80656497271734 3.0 4.0
322.0 50.00865002840738 11.381477717033503 3.0 4.0
323.0 50.06560876730201 11.10225118652862 3.0 4.0
324.0 50.09095089715471 10.980018935698933 3.0 4.0
325.0 50.13828930130025 11.892963379363353 3.0 4.0
326.0 50.085541998107516 12.818905571750193 3.0 4.0
327.0 50.12159556562635 13.755220905969418 3.0 4.0
328.0 50.163652286606926 14.69992735650717 3.0 4.0
329.0 50.114569003412676 15.651505563400514 3.0 4.0
330.0 50.0697302603815 15.485366309570214 3.0 4.0
331.0 50.04456051115621 15.433807062209048 3.0 4.0
332.0 50.00392968492917 15.497971431972188 3.0 4.0
333.0 50.09629250781668 15.676438492912744 3.0 4.0
334.0 50.10139056962848 15.965375546027742 4.0 5.0
335.0 50.09897645277758 16.724897525925705 4.0 5.0
336.0 50.11100970493041 17.508602976243726 4.0 5.0
337.0 50.22025011512443 18.31338742851101 4.0 5.0
338.0 50.23658233077841 19.136591651434678 4.0 5.0
339.0 50.26501227273784 19.975938550185152 4.0 5.0
340.0 50.28113242701513 20.1421627071687 4.0 5.0
341.0 50.168662477762446 20.39495534590145 4.0 5.0
342.0 50.18338315659623 20.73114989736656 4.0 5.0
343.0 50.267714526395 21.14676892765178 4.0 5.0
344.0 50.23370095012376 21.637236043736742 4.0 5.0
345.0 50.291872470400584 22.197590377672398 4.0 5.0
346.0 50.31718955902372 22.810056154425027 4.0 5.0
347.0 50.33704161676265 23.44918559270485 4.0 5.0
348.0 50.32346343170292 24.112858564554408 4.0 5.0
349.0 50.34779388010558 24.799104648097533 4.0 5.0
350.0 50.361154232520306 25.50610190798234 4.0 5.0
351.0 50.34186303069471 26.975776558359808 4.0 5.0
352.0 50.283724312057736 26.975776558359808 4.0 5.0
353.0 50.317990046735126 27.337895854351082 4.0 5.0
354.0 50.31799444428088 27.75981747017271 4.0 5.0
355.0 50.26293552426102 28.23886098330834 4.0 5.0
356.0 50.32392497364482 28.772173374968858 4.0 5.0
357.0 50.31738981444438 27.548258348233848 3.0 5.0
358.0 50.33175561104857 26.541571749599576 3.0 5.0
359.0 50.40734484411927 25.557020312523697 3.0 5.0
360.0 50.425298486671785 26.066167968181542 3.0 5.0
361.0 50.409940717851875 25.274214827053495 3.0 5.0
362.0 50.47276027107104 23.32144247255707 3.0 5.0
363.0 50.391430550391846 23.32144247255707 3.0 5.0
364.0 50.323592956841075 23.32144247255707 3.0 5.0
365.0 50.384373144933726 23.32144247255707 3.0 5.0
366.0 50.37703957959074 23.32144247255707 3.0 5.0
367.0 50.314832167071984 24.66441788930682 2.0 5.0
368.0 50.15641825019178 26.06194632613212 1.0 5.0
369.0 50.039548305699476 24.83702500513682 1.0 5.0
370.0 50.00686033158759 22.944900060651978 1.0 5.0
371.0 49.8853385805198 22.193296223711915 1.0 5.0
372.0 49.85980315176303 21.488930472061924 1.0 5.0
373.0 49.98721644934287 22.799920058817616 1.0 5.0
374.0 50.0892816188419 22.437424233740533 1.0 5.0
375.0 50.19946770114921 20.445416962512095 1.0 5.0
376.0 50.323047686016295 20.20119268606996 1.0 5.0
377.0 50.325958381962245 20.20119268606996 1.0 5.0
378.0 50.38476983412648 21.99054861909555 1.0 5.0
379.0 50.30389009363912 21.24181978440113 1.0 5.0
380.0 50.317484856744684 19.24263144193921 1.0 5.0
381.0 50.31812751953218 17.243631342256162 1.0 5.0
382.0 50.279018072286625 15.244893536036713 1.0 5.0
383.0 50.26598653597504 15.244893536036713 1.0 5.0
384.0 50.33477966965439 16.850588840769575 1.0 5.0
385.0 50.16620816583886 18.533157007947846 1.0 5.0
386.0 50.172263723032316 20.27346720207251 1.0 5.0
387.0 50.15980702168885 21.94925903879484 1.0 5.0
388.0 50.16075164171789 20.144983634057013 1.0 5.0
389.0 50.02374042704208 18.381261078982515 1.0 5.0
