#####################################################################
# Alchemist log file - simulation started at: 2023-03-03T08:05+0000 #
#####################################################################
#
# random = 14.0
#
# The columns have the following meaning: 
# time avgDistanceTeam[mean] minDistance[min] inDanger dangerTriggered 
0.0 NaN NaN 0.0 0.0
0.0 NaN NaN 0.0 0.0
1.0 NaN 39.0418298002299 1.0 1.0
2.0 NaN 30.321411648019442 1.0 1.0
3.0 63.51095737059194 28.321411648019474 1.0 1.0
4.0 57.938335182772036 26.321411648019513 1.0 1.0
5.0 56.84429270321177 24.321411648019545 1.0 1.0
6.0 55.709660992726796 22.32141164801958 1.0 1.0
7.0 53.74552053760732 20.321411648019616 1.0 1.0
8.0 52.53442557471622 18.32141164801965 1.0 1.0
9.0 50.85704189197829 21.321411648019566 1.0 1.0
10.0 48.974507081098245 19.3214116480196 1.0 1.0
11.0 47.94150791185145 22.321411648019513 1.0 1.0
12.0 46.194273971729295 20.32141164801955 1.0 1.0
13.0 44.31952011048371 18.32141164801949 1.0 1.0
14.0 42.65574232405814 21.321411648019495 1.0 1.0
15.0 41.065757508163166 19.32141164801944 1.0 1.0
16.0 40.605418704028686 22.321411648019446 1.0 1.0
17.0 38.968763966467264 20.32141164801939 1.0 1.0
18.0 37.87121743554777 18.41400325333836 1.0 1.0
19.0 36.45729243967341 19.85221722950286 1.0 1.0
20.0 35.17857113675472 18.588704474957545 1.0 1.0
21.0 34.02874459703341 18.731672667682485 1.0 1.0
22.0 32.87092311236859 18.731672667682485 1.0 1.0
23.0 31.69575616248241 18.321328934363024 1.0 1.0
24.0 30.874401690527456 18.717304195483347 1.0 1.0
25.0 29.84837877804037 18.160512544789945 1.0 1.0
26.0 28.788006558830546 18.682032689316188 1.0 1.0
27.0 28.06355272478159 15.62531311151934 1.0 1.0
28.0 27.20671902843526 15.62531311151934 1.0 1.0
29.0 26.556469626029973 13.952806761964114 1.0 1.0
30.0 25.71299981950603 12.377852125486278 1.0 1.0
31.0 25.258563011340996 10.9426518698211 1.0 1.0
32.0 24.692869374289714 9.709378798244177 1.0 1.0
33.0 24.286818774990227 8.763700323007985 1.0 1.0
34.0 23.809833345552796 8.205659635592184 1.0 1.0
35.0 23.62310766067554 8.115618076208579 1.0 1.0
36.0 23.30757185612381 8.508446595153544 1.0 1.0
37.0 23.395559508303716 9.323307898287835 1.0 1.0
38.0 23.087087159735006 9.811322875840432 1.0 1.0
39.0 23.433317045319956 10.739893035784581 1.0 1.0
40.0 23.38142389792635 10.577514022427982 1.0 1.0
41.0 23.666837594239425 8.618974225977738 1.0 1.0
42.0 23.95967912450737 6.684986784621586 1.0 1.0
43.0 24.35420751029183 4.805304296323406 1.0 1.0
44.0 24.833293477940522 3.0810059970651253 1.0 1.0
45.0 25.49423817912048 1.97337355329333 1.0 1.0
46.0 26.38274449031575 4.057214490773558 1.0 1.0
47.0 26.913236779761963 4.565070764414498 1.0 1.0
48.0 27.54764106594528 5.67698819266932 1.0 1.0
49.0 28.4449281742583 7.18446346667717 1.0 1.0
50.0 29.26450351951418 6.803673256386778 1.0 1.0
51.0 30.15108944797599 5.547396695430525 1.0 1.0
52.0 31.25434804257348 6.23238804752714 1.0 1.0
53.0 31.968369869776936 8.396256416709154 1.0 1.0
54.0 32.874068657503656 6.724266624830626 1.0 1.0
55.0 33.784948184219346 2.76392518712539 1.0 1.0
56.0 34.539417831458145 1.2831597221843796 1.0 1.0
57.0 35.545326931690894 5.552043386114996 1.0 1.0
58.0 36.40312170238009 4.4028827762383 1.0 1.0
59.0 37.452493103825 5.356281819828418 1.0 1.0
60.0 38.31103185055376 4.67769796338189 1.0 1.0
61.0 39.30133992292059 4.803328173238803 1.0 1.0
62.0 40.34055655483737 5.680058524613283 1.0 1.0
63.0 41.38689289798821 7.0323657574271765 1.0 1.0
64.0 42.41421737359728 8.639749501544387 1.0 1.0
65.0 43.44635715446084 10.384429437992198 1.0 1.0
66.0 44.435144724143626 12.207681108869188 1.0 1.0
67.0 44.98680812257919 14.079012087467097 1.0 1.0
68.0 45.649658407299476 15.981541998888837 1.0 1.0
69.0 46.23024321066162 17.905328479685906 1.0 1.0
70.0 46.73694111929687 19.844190365662563 1.0 1.0
71.0 47.2120624832579 21.960690551417247 1.0 1.0
72.0 47.55595777903513 24.84682804620338 1.0 1.0
73.0 47.91694588954393 25.951467065126028 1.0 1.0
74.0 48.16977962999916 27.201453062711902 1.0 1.0
75.0 48.493044794177386 28.57772002154211 1.0 1.0
76.0 48.794175729487634 30.062929690110927 1.0 1.0
77.0 49.147364637943596 31.641745029180957 1.0 1.0
78.0 49.31213907468516 33.30085498072201 1.0 1.0
79.0 49.52467757278146 34.82826016228541 1.0 1.0
80.0 49.70386235324555 35.09683302246398 1.0 1.0
81.0 50.00364447200756 35.476297305124724 1.0 1.0
82.0 50.151169348137394 35.9631429766154 1.0 1.0
83.0 50.191511872469924 36.55307969284344 1.0 1.0
84.0 50.33119028285275 37.24120859083719 2.0 2.0
85.0 50.434400343780446 38.022198773625966 2.0 2.0
86.0 50.499790681629456 38.890456179582245 2.0 2.0
87.0 50.54654975381373 38.890456179582245 2.0 2.0
88.0 50.56401501595246 38.890456179582245 2.0 2.0
89.0 50.51471151055979 38.890456179582245 2.0 2.0
90.0 50.58814271923462 37.377772643030355 2.0 2.0
91.0 50.53342568317766 35.880760144246004 2.0 2.0
92.0 50.37835340006218 35.60400348803575 2.0 2.0
93.0 50.28239201802878 35.680112788627135 2.0 2.0
94.0 50.19276380892993 33.683796119005954 2.0 2.0
95.0 50.16307918361304 33.651755333531 2.0 2.0
96.0 50.18667496118823 33.62108812289206 2.0 2.0
97.0 50.241160920036855 33.62055773146821 2.0 2.0
98.0 50.35650120329995 33.69457329576343 2.0 2.0
99.0 50.563232073330646 35.624650280325675 2.0 2.0
100.0 50.68229005261691 33.732279501527955 2.0 2.0
101.0 50.78174541554736 33.70267647369422 2.0 2.0
102.0 50.60979503109102 33.681442155701454 2.0 2.0
103.0 50.52459946816319 33.66553858023223 2.0 2.0
104.0 50.427292296149304 33.65399236901143 2.0 2.0
105.0 50.28184402139774 35.647089608408024 2.0 2.0
106.0 50.203919214962184 37.02344552287746 2.0 2.0
107.0 50.197105483227574 35.86654061797115 2.0 2.0
108.0 50.28460997691343 34.5244053904289 2.0 2.0
109.0 50.50780024820774 34.904848719634394 2.0 2.0
110.0 50.74143001738438 34.99336967128939 2.0 2.0
111.0 50.705359012595665 35.02656418297366 2.0 2.0
112.0 50.714968722766706 34.598248727020106 2.0 2.0
113.0 50.73620416734562 32.791039772885895 2.0 2.0
114.0 50.70351010307263 31.00751140928953 2.0 2.0
115.0 50.619204582863965 31.00751140928953 2.0 2.0
116.0 50.44424856060553 31.00751140928953 2.0 2.0
117.0 50.371790628267576 31.00751140928953 2.0 2.0
118.0 50.4339372380368 31.00751140928953 2.0 2.0
119.0 50.38311352349774 29.110528678071738 2.0 2.0
120.0 50.32894037989568 27.228568420243864 2.0 2.0
121.0 50.3601756145734 25.364892238090214 2.0 2.0
122.0 50.446822498327926 21.736283868909627 2.0 2.0
123.0 50.64031268105595 18.10492066418833 2.0 2.0
124.0 50.643273460327904 14.473061046580286 2.0 2.0
125.0 50.69664959325006 10.843952538353303 2.0 2.0
126.0 50.648702120217955 9.158481992902376 2.0 2.0
127.0 50.54966360923174 7.617714819369951 2.0 2.0
128.0 50.55165516671686 6.326836348186527 2.0 2.0
129.0 50.50683942621439 6.326836348186527 2.0 2.0
130.0 50.32006041430642 6.326836348186527 2.0 2.0
131.0 50.340730043966175 6.326836348186527 2.0 2.0
132.0 50.37463266792076 6.326836348186527 2.0 2.0
133.0 50.37806346892869 4.359539981036536 2.0 2.0
134.0 50.38871354460149 2.4460320347782867 2.0 2.0
135.0 50.33921750252548 0.9803565069305394 2.0 2.0
136.0 50.25316395291308 5.640908694985018 2.0 2.0
137.0 50.35691928633846 8.262981191426656 2.0 2.0
138.0 50.38006636149354 11.475243577013908 2.0 2.0
139.0 50.30856761623285 14.900019700090581 2.0 2.0
140.0 50.32343231563311 18.15877502120898 1.0 2.0
141.0 50.3972611943414 20.151036896141637 1.0 2.0
142.0 50.42416648514148 20.151036896141637 1.0 2.0
143.0 50.37871099384248 20.151036896141637 1.0 2.0
144.0 50.39990741836505 20.151036896141637 1.0 2.0
145.0 50.44762559865249 20.151036896141637 0.0 2.0
146.0 50.4916657947086 21.03670430945152 0.0 2.0
147.0 50.39925904235113 22.228585187607674 0.0 2.0
148.0 50.36664393131998 23.309750632026457 0.0 2.0
149.0 50.2968387182374 22.281766887578446 0.0 2.0
150.0 50.076966353970306 21.164995001033287 0.0 2.0
151.0 50.018479841216156 21.224303101152387 0.0 2.0
152.0 49.96951590809521 21.330379060518585 0.0 2.0
153.0 49.852935431569215 21.48253010241654 0.0 2.0
154.0 49.81042207421532 20.60268362227047 0.0 2.0
155.0 49.79108865482284 18.985889740708927 0.0 2.0
156.0 49.878507162288585 17.319823327044514 0.0 2.0
157.0 49.94505715057977 16.883556280049476 0.0 2.0
158.0 49.994640648409344 16.883556280049476 0.0 2.0
159.0 50.10503037672089 16.883556280049476 0.0 2.0
160.0 50.19138162466028 16.883556280049476 0.0 2.0
161.0 50.19608258099452 16.883556280049476 0.0 2.0
162.0 50.118079227279935 17.989437662274298 0.0 2.0
163.0 49.980411790135534 19.196063088587394 0.0 2.0
164.0 49.80977571103539 20.495724663055015 0.0 2.0
165.0 49.729884492229395 21.60288699173205 0.0 2.0
166.0 49.761332488699615 21.60288699173205 0.0 2.0
167.0 49.85525835762533 19.815746087106014 1.0 3.0
168.0 49.79448683553487 17.59860520763543 1.0 3.0
169.0 49.92374281248865 15.464956408188211 1.0 3.0
170.0 50.08331791641763 13.400704617914888 1.0 3.0
171.0 50.21756608820676 11.482903945429976 1.0 3.0
172.0 50.19444090247425 9.754319172652858 1.0 3.0
173.0 50.22891986177539 10.201191287147989 1.0 3.0
174.0 50.168426237093044 10.201191287147989 1.0 3.0
175.0 50.10811912549866 10.201191287147989 1.0 3.0
176.0 49.93691642756527 10.201191287147989 1.0 3.0
177.0 49.82945740637278 10.201191287147989 1.0 3.0
178.0 49.72033895399025 10.201191287147989 1.0 3.0
179.0 49.57925655009338 9.170132799484973 1.0 3.0
180.0 49.5755796365361 9.014965944107157 1.0 3.0
181.0 49.531522297810795 6.339269626745286 1.0 3.0
182.0 49.60308890121296 4.607793801445909 1.0 3.0
183.0 49.69703075873259 3.2057923584332797 1.0 3.0
184.0 49.774162524721305 2.705975888785919 1.0 3.0
185.0 49.81336524895905 3.516725278210179 1.0 3.0
186.0 49.84521868150804 4.971450962658959 1.0 3.0
187.0 49.934225811452436 4.971450962658959 1.0 3.0
188.0 49.83426968271805 4.971450962658959 1.0 3.0
189.0 49.82754854407803 6.8969097026907935 1.0 3.0
190.0 49.72615213554895 8.855633318473227 1.0 3.0
191.0 49.609036068867844 10.829554157184003 1.0 3.0
192.0 49.56159836732287 14.798786075735014 1.0 3.0
193.0 49.67750201744876 14.798786075735014 1.0 3.0
194.0 49.7265584574816 14.191985742098463 1.0 3.0
195.0 49.74132271232102 13.830786262045 1.0 3.0
196.0 49.87064258472424 13.72820185208558 1.0 3.0
197.0 49.947103604529374 13.893123386266348 1.0 3.0
198.0 50.036979610853514 14.315398849567961 1.0 3.0
199.0 50.0660962124206 16.243761491556853 1.0 3.0
200.0 50.043052099827605 17.64929101354946 1.0 3.0
201.0 50.043553482203684 19.160771361490912 1.0 3.0
202.0 49.84739886484676 20.754994186622334 1.0 3.0
203.0 49.84729795650034 22.414265521431037 1.0 3.0
204.0 49.85940167536364 22.414265521431037 1.0 3.0
205.0 49.844138302130865 22.52424268198768 1.0 3.0
206.0 49.955079516635514 22.81297045368954 1.0 3.0
207.0 49.96701771169647 23.273000702678477 1.0 3.0
208.0 49.93855132022282 23.895990253756256 1.0 3.0
209.0 50.08168428509682 24.669844518458167 1.0 3.0
210.0 50.084367282815236 24.669844518458167 1.0 3.0
211.0 49.97333121851857 25.8296817989255 1.0 3.0
212.0 49.85927182860355 28.43102950481011 1.0 3.0
213.0 49.85110069251 29.458663432594424 1.0 3.0
214.0 49.76572004594056 29.202738576714363 1.0 3.0
215.0 49.70856653633565 27.628833727991 1.0 3.0
216.0 49.76510085985975 25.747873121169224 1.0 3.0
217.0 49.83432560264831 25.380114855135954 1.0 3.0
218.0 49.95825236307023 25.380114855135954 1.0 3.0
219.0 50.02305518308658 25.380114855135954 1.0 3.0
220.0 50.125532652492915 25.380114855135954 1.0 3.0
221.0 50.220563937716484 25.380114855135954 1.0 3.0
222.0 50.15699748046841 23.870409527425018 1.0 3.0
223.0 50.08818680993264 22.438068688461176 1.0 3.0
224.0 49.903406567699996 21.09827959643208 1.0 3.0
225.0 49.79097045170239 19.170396324641526 1.0 3.0
226.0 49.751533207247356 17.251635755901102 1.0 3.0
227.0 49.69414206852028 16.79658057513669 1.0 3.0
228.0 49.756024073121004 16.57201563667429 1.0 3.0
229.0 49.866853061373504 16.587317074930898 1.0 3.0
230.0 49.94181639189907 16.84183209552616 1.0 3.0
231.0 50.05131751462316 17.325024415505826 1.0 3.0
232.0 50.11165895335241 17.325024415505826 1.0 3.0
233.0 50.10299370116249 15.392658807457588 1.0 3.0
234.0 50.05698542924004 13.479974140541257 1.0 3.0
235.0 50.07782881212312 11.596731991247657 1.0 3.0
236.0 49.87277798526717 9.76000555503045 1.0 3.0
237.0 49.815932115295595 8.00182578113503 1.0 3.0
238.0 49.73107246950454 6.387380333843864 1.0 3.0
239.0 49.63626973325329 4.58401388067985 1.0 3.0
240.0 49.705861622142955 4.9457696269620515 1.0 3.0
241.0 49.732989985694495 5.992331123753025 1.0 3.0
242.0 49.920337530687895 7.440119733243358 1.0 3.0
243.0 50.08239210437936 9.099595560068135 1.0 3.0
244.0 50.13458481114222 10.874272466548328 1.0 3.0
245.0 50.17308568352041 12.716007879239763 1.0 3.0
246.0 50.23160169595005 12.716007879239763 1.0 3.0
247.0 50.26636286122963 11.199452380090971 1.0 3.0
248.0 50.07815297990401 9.856834565684565 1.0 3.0
249.0 49.91345080677218 8.76844287284003 1.0 3.0
250.0 49.822372954673085 8.038232694908885 1.0 3.0
251.0 49.85047751128241 7.767713579309119 1.0 4.0
252.0 49.757122757190444 8.003722968459456 1.0 4.0
253.0 49.71822604459163 9.90910708709503 1.0 4.0
254.0 49.691421573445865 11.340244892187492 1.0 4.0
255.0 49.8348032735372 14.60898858158317 1.0 4.0
256.0 49.93309553230509 14.60898858158317 1.0 4.0
257.0 49.98495894801891 18.17260918832052 1.0 4.0
258.0 49.859855472397186 20.016348569470495 1.0 4.0
259.0 49.73634609960092 20.016348569470495 1.0 4.0
260.0 49.625296054900275 20.016348569470495 1.0 4.0
261.0 49.39634721234039 19.781978851972838 1.0 4.0
262.0 49.35099209089832 19.748417431080785 1.0 4.0
263.0 49.2563392218897 19.91667405210632 1.0 4.0
264.0 49.15200315067864 13.021117325971085 1.0 4.0
265.0 49.19330478124408 13.021117325971085 1.0 4.0
266.0 49.2638333966801 14.815198009295322 1.0 4.0
267.0 49.34184605003079 16.656250571345662 1.0 4.0
268.0 49.488311710899694 16.656250571345662 1.0 4.0
269.0 49.70208262125244 16.656250571345662 1.0 4.0
270.0 49.79599850891991 16.656250571345662 1.0 4.0
271.0 49.902584713013255 17.850663408737784 1.0 4.0
272.0 49.815056855357184 19.179719844767302 1.0 4.0
273.0 49.68433557018261 20.34550669775192 1.0 4.0
274.0 49.56956883665168 20.627608746022037 1.0 4.0
275.0 49.39154341096417 21.564687584530812 1.0 4.0
276.0 49.12634793080719 22.507182379362145 1.0 4.0
277.0 48.966985009385674 23.45444023415017 1.0 4.0
278.0 48.94459932336805 24.4059065542908 1.0 4.0
279.0 49.09185483632869 25.361107680387843 1.0 4.0
280.0 49.33976816739509 26.190938054427356 1.0 4.0
281.0 49.50500182171768 27.17902537263129 1.0 4.0
282.0 49.583229477866674 28.313637656630842 1.0 4.0
283.0 49.82225714238178 28.707324923987056 1.0 4.0
284.0 49.83211849030834 25.879448890539553 1.0 4.0
285.0 49.82868657838581 23.95606302845874 1.0 4.0
286.0 49.65331476664121 22.051566802775476 1.0 4.0
287.0 49.44182691856708 20.17587285871689 1.0 4.0
288.0 49.37615996527135 18.339210246242907 1.0 4.0
289.0 49.277571819677554 18.339210246242907 1.0 4.0
290.0 49.19254878427023 18.339210246242907 1.0 4.0
291.0 49.12997039746398 17.425052269347844 1.0 4.0
292.0 49.09715455573106 16.176966081072568 1.0 4.0
293.0 49.197344983852425 15.891138455450271 1.0 4.0
294.0 49.42648817445569 15.843301116916598 1.0 4.0
295.0 49.53220194015863 16.034628238146194 1.0 4.0
296.0 49.590717974680274 14.083390423526685 1.0 4.0
297.0 49.69858307593381 12.151585286787286 1.0 4.0
298.0 49.641577511509865 10.249142512812378 1.0 4.0
299.0 49.557107922980386 8.39517392126046 1.0 4.0
300.0 49.48948072718311 6.634718544037791 1.0 4.0
301.0 49.383005035956245 5.066857766690967 1.0 4.0
302.0 49.208787874281086 3.931623770263423 1.0 4.0
303.0 49.347639057673355 5.754394319482607 1.0 4.0
304.0 49.419671596429865 7.667475440618768 1.0 4.0
305.0 49.41255013427045 9.616796205630704 1.0 4.0
306.0 49.41077390496554 11.583906966254741 1.0 4.0
307.0 49.47888933188218 13.561559765076241 1.0 4.0
308.0 49.62764016606915 15.545752907184106 1.0 4.0
309.0 49.61207437113807 17.534361938276408 1.0 4.0
310.0 49.46291172727505 17.682199000810474 1.0 4.0
311.0 49.519570392821876 18.04586064482459 1.0 4.0
312.0 49.507593293189 18.614232803426177 1.0 4.0
313.0 49.426698733487 19.37025376587127 1.0 4.0
314.0 49.40222864930264 20.289725488182324 1.0 4.0
315.0 49.31787357076041 21.35126278382005 1.0 4.0
316.0 49.25285964898158 22.533922594066674 1.0 4.0
317.0 49.24303832644578 24.23325507601299 1.0 4.0
318.0 49.33883047065213 25.976806908315112 1.0 4.0
319.0 49.44890800394521 27.755882904951143 1.0 4.0
320.0 49.50756231161894 29.563856835618008 1.0 4.0
321.0 49.55711973009957 31.39645104177112 1.0 4.0
322.0 49.632199276272004 31.39645104177112 1.0 4.0
323.0 49.62539731336773 33.24965169260745 1.0 4.0
324.0 49.51841401316321 36.018205403815806 1.0 4.0
325.0 49.40961456768975 36.86319126694253 1.0 4.0
326.0 49.34653322348699 38.07289216405992 1.0 4.0
327.0 49.39412971124696 39.21517572110079 1.0 4.0
328.0 49.4374226467566 38.174460836805764 1.0 4.0
329.0 49.39068406794721 38.17446083288603 1.0 4.0
330.0 49.26872171203293 37.59542233831072 1.0 4.0
331.0 49.239087335916665 35.726872829991144 1.0 4.0
332.0 49.269760616348115 34.4556393361606 1.0 4.0
333.0 49.34607077653599 34.4556393361606 1.0 4.0
334.0 49.319524191645975 34.4556393361606 2.0 5.0
335.0 49.43167158807325 34.4556393361606 2.0 5.0
336.0 49.52338877281368 35.628196526061544 2.0 5.0
337.0 49.61812494076302 35.62794853163653 2.0 5.0
338.0 49.596517593405416 36.473432744576506 2.0 5.0
339.0 49.57505340225698 36.8630941649387 2.0 5.0
340.0 49.49050647285376 38.09562375584873 2.0 5.0
341.0 49.333313833100505 38.09563232501919 2.0 5.0
342.0 49.24224926266968 38.095639855849726 2.0 5.0
343.0 49.1792932561119 36.30757870575847 2.0 5.0
344.0 49.154979790277096 34.45563934798292 2.0 5.0
345.0 49.28883958900297 32.621187811584456 2.0 5.0
346.0 49.393519249297306 32.62118781189901 2.0 5.0
347.0 49.49906680063595 34.45563934928527 2.0 5.0
348.0 49.6029101273807 33.88308416523705 2.0 5.0
349.0 49.681059721077084 33.97680166998077 2.0 5.0
350.0 49.6878961343225 34.041696558784466 2.0 5.0
351.0 49.555405646348994 34.07914431362634 2.0 5.0
352.0 49.36505650743033 34.090519429163685 2.0 5.0
353.0 49.24309854278029 36.071368652985484 2.0 5.0
354.0 49.11539265834425 34.40147939660282 2.0 5.0
355.0 49.00663652714642 32.44860220770714 2.0 5.0
356.0 49.07940321625605 32.36664306143841 2.0 5.0
357.0 49.21974692705305 34.2884094540652 2.0 5.0
358.0 49.367144703389606 36.25198476471363 2.0 5.0
359.0 49.46739208447235 38.23630339636614 2.0 5.0
360.0 49.53453110271893 38.034916204022025 2.0 5.0
361.0 49.63525467927719 36.035275208974056 2.0 5.0
362.0 49.66468756757813 34.03654793264518 2.0 5.0
363.0 49.525222240503055 34.01732135897306 2.0 5.0
364.0 49.476520800973226 34.00214001374979 2.0 5.0
365.0 49.45172125282964 33.99155941491416 2.0 5.0
366.0 49.35014292393659 33.987123909339886 2.0 5.0
367.0 49.33948433498761 35.971464381824774 2.0 5.0
368.0 49.29259904366513 36.334151715947904 2.0 5.0
369.0 49.29743838989225 34.43272739637679 2.0 5.0
370.0 49.20394327492585 36.86312763325778 2.0 5.0
371.0 49.11961032428542 36.86312763325778 2.0 5.0
372.0 49.23585920022808 36.86312763325778 2.0 5.0
373.0 49.29179950327567 36.86312763325778 2.0 5.0
374.0 49.45331126990804 36.86312763325778 2.0 5.0
375.0 49.627177800108086 36.00393688719767 2.0 5.0
376.0 49.76438405491122 36.01827179106264 2.0 5.0
377.0 49.80268272113753 35.252898632396374 2.0 5.0
378.0 49.72846848154124 35.252898632396374 2.0 5.0
379.0 49.600759572878275 33.83084140797698 1.0 5.0
380.0 49.4996023842416 33.83084140797698 1.0 5.0
381.0 49.25540880974089 32.734595092816065 1.0 5.0
382.0 49.05295927053854 31.583295698708415 1.0 5.0
383.0 49.02160035295609 30.516513211434344 1.0 5.0
384.0 49.02123135908178 29.539589977783027 1.0 5.0
385.0 49.253574240162564 28.66138074456216 1.0 5.0
386.0 49.31035007903138 25.928060539331902 1.0 5.0
387.0 49.58992213761288 23.969020911705353 1.0 5.0
388.0 49.88024834049502 22.014781971954918 1.0 5.0
389.0 49.99436659656078 20.067496368898023 1.0 5.0
