#####################################################################
# Alchemist log file - simulation started at: 2023-03-03T08:05+0000 #
#####################################################################
#
# random = 7.0
#
# The columns have the following meaning: 
# time avgDistanceTeam[mean] minDistance[min] inDanger dangerTriggered 
0.0 NaN NaN 0.0 0.0
0.0 NaN NaN 0.0 0.0
1.0 NaN 25.13728045158665 1.0 1.0
2.0 NaN 39.46043014643865 1.0 1.0
3.0 59.69765913564925 37.46043014643865 1.0 1.0
4.0 55.32602997042221 35.46043014643865 1.0 1.0
5.0 53.60639704955528 33.46043014643865 1.0 1.0
6.0 52.66436997984511 31.46043014643865 1.0 1.0
7.0 51.496013551674146 29.46043014643865 1.0 1.0
8.0 49.776309893313666 27.46043014643865 1.0 1.0
9.0 47.98893836856716 25.460430146438586 1.0 1.0
10.0 46.14639484034237 23.460430146438522 1.0 1.0
11.0 44.20964842934251 21.460430146438455 1.0 1.0
12.0 42.55117930987116 19.46043014643846 1.0 1.0
13.0 40.78927546255821 22.460430146438522 1.0 1.0
14.0 39.06834026179003 20.46043014643846 1.0 1.0
15.0 37.52119470492166 22.460430146438522 1.0 1.0
16.0 36.29279926092942 19.878669003597807 1.0 1.0
17.0 34.78318047749552 18.527940717791868 1.0 1.0
18.0 35.03486323743253 18.12227483374775 1.0 1.0
19.0 33.79678919911391 17.79961531865111 1.0 1.0
20.0 32.46839634823266 18.125785324464566 1.0 1.0
21.0 31.19638708191589 18.32309314025716 1.0 1.0
22.0 30.32825739587256 20.125784599163982 1.0 1.0
23.0 29.212516005545 20.141849368102577 1.0 1.0
24.0 28.29132289192606 18.302359177263032 1.0 1.0
25.0 27.272857210520705 17.172700548257737 1.0 1.0
26.0 26.61155467599598 16.49174068354218 1.0 1.0
27.0 27.385365404471152 13.413133965238424 1.0 1.0
28.0 26.883756201202036 13.413133965238424 1.0 1.0
29.0 26.115122575849334 11.901094277496675 1.0 1.0
30.0 25.728572054028835 10.552721318896646 1.0 1.0
31.0 25.199113074412136 9.438421979691713 1.0 1.0
32.0 24.758131406421384 8.64914398649714 1.0 1.0
33.0 24.556254229056545 8.278379909836938 1.0 1.0
34.0 24.169908883683796 8.381852788257746 1.0 1.0
35.0 24.209255731618708 8.943116816661666 1.0 1.0
36.0 24.266760045958595 9.884493949054214 1.0 1.0
37.0 24.218004841460374 11.109775103993881 1.0 1.0
38.0 24.31570513585784 12.124271368117261 1.0 1.0
39.0 24.26442910169996 10.737260615667367 1.0 1.0
40.0 24.502733754295527 8.41232572658579 1.0 1.0
41.0 24.580809953832745 7.291920551564078 1.0 1.0
42.0 24.93671244116604 7.905909759742885 1.0 1.0
43.0 25.05055387587734 6.272773151688987 1.0 1.0
44.0 25.44801179699249 3.3036625418133 1.0 1.0
45.0 25.778832534694704 1.0124050813557615 1.0 1.0
46.0 26.330689073485818 2.060982485113301 1.0 1.0
47.0 26.627610997331974 2.060982485113301 1.0 1.0
48.0 27.328882107997224 0.9728775584033368 1.0 1.0
49.0 28.147642397592044 3.6386711000522842 1.0 1.0
50.0 28.83710691786843 3.3044863167314005 1.0 1.0
51.0 29.652910404554817 4.1835876620703125 1.0 1.0
52.0 30.601638590314458 7.128307512847737 1.0 1.0
53.0 31.431021547525553 6.493720007668759 1.0 1.0
54.0 32.33251959573643 6.443914266831421 1.0 1.0
55.0 33.319283776088284 6.99139918889985 1.0 1.0
56.0 33.96531028721697 8.014692393275327 1.0 1.0
57.0 34.97981199725658 8.221362028861178 1.0 1.0
58.0 35.57390313916662 7.340086772078329 1.0 1.0
59.0 36.368061713952834 6.939948890045562 1.0 1.0
60.0 37.19764300362274 6.239717033520755 1.0 1.0
61.0 37.976827571917816 7.091264393433194 1.0 1.0
62.0 38.77051855515191 8.344937879926299 1.0 1.0
63.0 39.487541989103185 9.848347224290055 1.0 1.0
64.0 40.15139372748542 11.503994845482506 1.0 1.0
65.0 40.76362588285435 13.254955730786 1.0 1.0
66.0 41.49387726930855 15.085107124468415 1.0 1.0
67.0 42.09920879076284 16.95438471839039 1.0 1.0
68.0 42.68398955708692 18.85121519312868 1.0 1.0
69.0 43.36445093113174 20.768115334218834 1.0 1.0
70.0 43.886005561979886 22.699457161564037 1.0 1.0
71.0 44.52154759992834 24.6418271268299 1.0 1.0
72.0 45.06559735732458 26.592786039753303 1.0 1.0
73.0 45.57936594182051 26.972331723826763 1.0 1.0
74.0 46.06429199636753 27.113637703585358 1.0 1.0
75.0 46.5161364342894 27.518067459200385 1.0 1.0
76.0 46.915431443259855 28.174292184961875 1.0 1.0
77.0 47.2123621500833 29.065262080786198 1.0 1.0
78.0 47.52772897540378 30.17018720181653 1.0 1.0
79.0 47.825643215655724 31.466536956379603 1.0 1.0
80.0 48.10737834707383 32.9317129303722 1.0 1.0
81.0 48.457025967873626 34.544239770132 1.0 1.0
82.0 48.861034634146286 36.284477429487396 1.0 1.0
83.0 49.30649673098988 37.39330768855059 1.0 1.0
84.0 49.623537111358765 37.39330768855059 2.0 2.0
85.0 49.869153913203405 37.39330768855059 2.0 2.0
86.0 50.132244583730404 37.39330768855059 2.0 2.0
87.0 50.34549821583412 38.959038725472304 2.0 2.0
88.0 50.478292600605734 38.68087937162834 2.0 2.0
89.0 50.519673982360715 38.441390021625246 2.0 2.0
90.0 50.480041256273516 38.23187994467053 2.0 2.0
91.0 50.486719128930005 38.05128569975476 2.0 2.0
92.0 50.37459563792918 37.91891788415287 2.0 2.0
93.0 50.29315785801708 37.839798885658624 2.0 2.0
94.0 50.31526867098956 36.13771258711856 2.0 2.0
95.0 50.32148306244431 36.13771258711856 2.0 2.0
96.0 50.332922295765144 36.13771258711856 2.0 2.0
97.0 50.323624219168344 36.13771258711856 2.0 2.0
98.0 50.31092853101656 36.13771258711856 2.0 2.0
99.0 50.36447742289845 36.13771258711856 2.0 2.0
100.0 50.373022235362434 36.13771258711856 2.0 2.0
101.0 50.4202957095957 37.83816990444285 2.0 2.0
102.0 50.53982062135789 37.988741167334176 2.0 2.0
103.0 50.505490623414644 38.116831298455224 2.0 2.0
104.0 50.39137195539899 38.32505047641316 2.0 2.0
105.0 50.332003487036694 38.32505047641316 2.0 2.0
106.0 50.26389663399282 38.39424821816019 2.0 2.0
107.0 50.211994376275065 38.43475429278983 2.0 2.0
108.0 50.225672318333835 36.79221826506511 2.0 2.0
109.0 50.169449571631276 36.79221826506511 2.0 2.0
110.0 50.128830759961524 36.79221826506511 2.0 2.0
111.0 50.12031608564165 36.79221826506511 2.0 2.0
112.0 50.16696734003949 36.79221826506511 2.0 2.0
113.0 50.25842403845379 36.79221826506511 2.0 2.0
114.0 50.28742378149101 36.79221826506511 2.0 2.0
115.0 50.28522535220577 36.726085890784546 2.0 2.0
116.0 50.365960260389286 36.66974888306864 2.0 2.0
117.0 50.44474149149813 36.62070310882817 2.0 2.0
118.0 50.476692707165356 36.582977157048255 2.0 2.0
119.0 50.41407724884083 36.558270128323606 2.0 2.0
120.0 50.32073814305328 38.22002304989291 2.0 2.0
121.0 50.30351939544264 39.91463584078577 2.0 2.0
122.0 50.31339965655668 39.39998334524197 2.0 2.0
123.0 50.29778411088371 37.75444511513195 2.0 2.0
124.0 50.227405246892104 37.75444511513195 2.0 2.0
125.0 50.16382323122983 39.38421033139104 2.0 2.0
126.0 50.14952110997126 38.231740572812726 2.0 2.0
127.0 50.30914288148813 36.57881242374138 2.0 2.0
128.0 50.34053596236101 36.592754184181935 2.0 2.0
129.0 50.32230235217831 36.60495495205986 2.0 2.0
130.0 50.42945810249096 36.614398328424805 2.0 2.0
131.0 50.47965360632776 36.621094213271554 2.0 2.0
132.0 50.484103896278015 36.62433970589419 2.0 2.0
133.0 50.47269093596713 37.873200892317946 2.0 2.0
134.0 50.393189716744835 38.2871951126833 2.0 2.0
135.0 50.251043836610414 39.733432378597364 2.0 2.0
136.0 50.09449943247524 39.328722874376155 2.0 2.0
137.0 50.02165432178784 37.67960587970047 2.0 2.0
138.0 50.02438088662154 37.67960587970047 2.0 2.0
139.0 49.94808270139612 39.33623534869546 2.0 2.0
140.0 50.08691715728756 38.28205340924245 2.0 2.0
141.0 50.23503592741868 36.61532408386077 2.0 2.0
142.0 50.336321690127356 34.984208044972206 2.0 2.0
143.0 50.4686562934945 34.97827831668995 2.0 2.0
144.0 50.50752765474824 34.97369550611586 2.0 2.0
145.0 50.63648471714546 34.97042930725352 2.0 2.0
146.0 50.686194692028444 34.968582088627414 2.0 2.0
147.0 50.599694960298486 36.59521494473877 2.0 2.0
148.0 50.525489227575775 38.257585147250666 2.0 2.0
149.0 50.48675118105829 37.92409309830919 2.0 2.0
150.0 50.42732081283849 34.33043695082474 2.0 2.0
151.0 50.28957650100099 30.752141670873044 2.0 2.0
152.0 50.12558300395276 27.207268197131732 2.0 2.0
153.0 50.12745898303816 27.207268197131732 2.0 2.0
154.0 50.17083931223809 27.207268197131732 2.0 2.0
155.0 50.28066202965996 27.207268197131732 2.0 2.0
156.0 50.44070491332609 27.207268197131732 2.0 2.0
157.0 50.649306818859316 27.207268197131732 2.0 2.0
158.0 50.811657850035 27.207268197131732 2.0 2.0
159.0 50.761854764256725 25.30490290059203 2.0 2.0
160.0 50.74888984240104 19.887190198658583 2.0 2.0
161.0 50.57545778267505 19.887190198658583 2.0 2.0
162.0 50.367980814145575 16.411287546733483 2.0 2.0
163.0 50.20536253426415 13.001088129925925 2.0 2.0
164.0 50.092719916591655 9.788238061527743 2.0 2.0
165.0 50.0255126809244 8.861363887119296 2.0 2.0
166.0 50.03909254381791 8.320825563148865 2.0 2.0
167.0 50.09525751231483 8.24301284097153 3.0 3.0
168.0 50.25091972751302 8.24301284097153 3.0 3.0
169.0 50.359946947076466 8.24301284097153 3.0 3.0
170.0 50.52282077499165 8.24301284097153 3.0 3.0
171.0 50.67153644067991 7.536667081917489 3.0 3.0
172.0 50.743472077455195 7.283420900522795 3.0 3.0
173.0 50.672066016442336 7.5398075603287635 3.0 3.0
174.0 50.61107753808767 8.264752158798435 3.0 3.0
175.0 50.43363035005876 11.263700996717043 3.0 3.0
176.0 50.33626459579172 14.606108208459183 3.0 3.0
177.0 50.221060374229815 18.087060230869376 3.0 3.0
178.0 50.11514714285616 20.087019118405355 3.0 3.0
179.0 50.230300003122125 22.086985636122975 3.0 3.0
180.0 50.313517070654896 24.08695794732746 3.0 3.0
181.0 50.480376637467444 24.08695794732746 3.0 3.0
182.0 50.6434239963066 24.08695794732746 3.0 3.0
183.0 50.72730964257591 24.08695794732746 3.0 3.0
184.0 50.68705148138728 24.08695794732746 3.0 3.0
185.0 50.61780145608557 25.568454942484024 3.0 3.0
186.0 50.32136650243485 25.680908989549366 3.0 3.0
187.0 50.15029392444927 22.62387076998695 3.0 3.0
188.0 50.115018527398625 19.802615790261004 3.0 3.0
189.0 50.08994152170506 17.3409778920388 3.0 3.0
190.0 50.122416861784366 15.418610292485598 3.0 3.0
191.0 50.20553684182945 14.264406000874583 3.0 3.0
192.0 50.318326968836075 14.264406000874583 3.0 3.0
193.0 50.5040044299008 14.264406000874583 3.0 3.0
194.0 50.529507125311994 14.264406000874583 3.0 3.0
195.0 50.55305873047979 14.264406000874583 3.0 3.0
196.0 50.56381383262623 14.264406000874583 3.0 3.0
197.0 50.61746504498354 14.718442961901264 3.0 3.0
198.0 50.61736799502736 15.42050256435798 3.0 3.0
199.0 50.53675442709796 16.187176695541538 2.0 3.0
200.0 50.300982266919604 17.72865246706817 2.0 3.0
201.0 50.15763048651202 19.87179956035198 2.0 3.0
202.0 50.04493981594935 22.439645432434073 2.0 3.0
203.0 50.06026300559259 23.408428120745707 2.0 3.0
204.0 49.95476568985328 24.50247593682886 2.0 3.0
205.0 49.92584458868948 25.69830497897642 2.0 3.0
206.0 50.14176513938923 25.69830497897642 2.0 3.0
207.0 50.287237542928786 25.69830497897642 2.0 3.0
208.0 50.43650820786441 25.69830497897642 2.0 3.0
209.0 50.46698346663983 25.69830497897642 2.0 3.0
210.0 50.37258939858638 25.69830497897642 2.0 3.0
211.0 50.30833457963686 25.53658233282253 2.0 3.0
212.0 50.254884269056625 25.371034859377417 2.0 3.0
213.0 50.09504953085356 25.75806897236353 2.0 3.0
214.0 49.94040746394812 26.671234124067592 2.0 3.0
215.0 49.821753014474254 28.05945902684658 2.0 3.0
216.0 49.785405453871405 28.05945902684658 2.0 3.0
217.0 49.92023118445861 28.313275418135177 2.0 3.0
218.0 50.10115708797215 28.313275418135177 2.0 3.0
219.0 50.333587788646014 28.313275418135177 2.0 3.0
220.0 50.54249516308137 28.313275418135177 2.0 3.0
221.0 50.6263258806916 28.313275418135177 2.0 3.0
222.0 50.69680375637492 28.313275418135177 2.0 3.0
223.0 50.6242193767412 29.85081812125667 2.0 3.0
224.0 50.46076069416971 31.441198624256717 2.0 3.0
225.0 50.37198807320156 33.68733345869094 2.0 3.0
226.0 50.303914122489715 36.18635629116982 2.0 3.0
227.0 50.234422942742334 37.60754774819182 2.0 3.0
228.0 50.252045845561014 37.030223585638836 2.0 3.0
229.0 50.32878624866891 36.559064767860036 2.0 3.0
230.0 50.52353465391704 36.1990439896491 2.0 3.0
231.0 50.51946563330813 36.552810595163905 2.0 3.0
232.0 50.584272550109546 37.01200840762893 2.0 3.0
233.0 50.621051309353625 37.57261897934796 2.0 3.0
234.0 50.62754645300812 38.230083327529364 2.0 3.0
235.0 50.544542368766486 38.70013139112209 2.0 3.0
236.0 50.49215941135148 38.74116844916528 2.0 3.0
237.0 50.48437041944533 37.89309356878784 2.0 3.0
238.0 50.51408253908115 36.050264544638324 2.0 3.0
239.0 50.521878429095985 37.60299062467623 2.0 3.0
240.0 50.48176862686196 37.610569564690515 2.0 3.0
241.0 50.510541897826755 37.61560517299648 2.0 3.0
242.0 50.506955662562 37.617989661307305 2.0 3.0
243.0 50.52830273548078 38.27791888515358 2.0 3.0
244.0 50.47033306406189 39.029183977662996 2.0 3.0
245.0 50.44472287614818 39.029183977662996 2.0 3.0
246.0 50.355611268299334 39.029183977662996 2.0 3.0
247.0 50.44165600953558 39.029183977662996 2.0 3.0
248.0 50.44065172810042 38.27586960797582 2.0 3.0
249.0 50.326843663357074 37.614346140214316 2.0 3.0
250.0 50.268096221274945 37.04941749142025 2.0 3.0
251.0 50.27476154627597 36.58578798887503 3.0 4.0
252.0 50.303224377285574 36.050318178573605 3.0 4.0
253.0 50.25603598935369 37.04585568608249 3.0 4.0
254.0 50.30178724611792 37.608366783613775 3.0 4.0
255.0 50.41190425526361 38.26730609948868 3.0 4.0
256.0 50.425251018370474 39.017838466609334 3.0 4.0
257.0 50.504336446369294 39.35162215672137 3.0 4.0
258.0 50.47387327332793 39.85538814893927 3.0 4.0
259.0 50.41926558526806 38.6744523353094 3.0 4.0
260.0 50.52977351988917 38.26855072795427 3.0 4.0
261.0 50.55332575003011 37.60963261793569 3.0 4.0
262.0 50.46125116177745 37.04695053685854 3.0 4.0
263.0 50.40658270229634 37.04695053685854 3.0 4.0
264.0 50.29986838954055 37.04695053685854 3.0 4.0
265.0 50.27343367135848 37.61011775132615 3.0 4.0
266.0 50.2158841051245 37.893119016202206 3.0 4.0
267.0 50.26882053321676 39.0205297398198 3.0 4.0
268.0 50.27404064738192 39.020508970322716 3.0 4.0
269.0 50.50759828051091 39.02046071442997 3.0 4.0
270.0 50.66218352295561 38.26960076871209 3.0 4.0
271.0 50.75027541081509 37.61024679412672 3.0 4.0
272.0 50.70111194153328 37.04728723001264 3.0 4.0
273.0 50.68007994773613 37.04728723001264 3.0 4.0
274.0 50.57928116951675 37.04728723001264 3.0 4.0
275.0 50.501919795152624 38.269347544618604 3.0 4.0
276.0 50.449507478734276 38.269347544618604 3.0 4.0
277.0 50.30867584175179 39.02004678408901 3.0 4.0
278.0 50.256809478949634 39.857065402262776 3.0 4.0
279.0 50.2327478944238 39.85707024270178 3.0 4.0
280.0 50.20929514710928 39.0200451980062 3.0 4.0
281.0 50.27868576668514 38.26932664457061 3.0 4.0
282.0 50.28269461464004 37.61008467319238 3.0 4.0
283.0 50.447087147715465 37.047199826760135 3.0 4.0
284.0 50.579156047159124 36.58511717414058 3.0 4.0
285.0 50.61633506530899 36.58511717414058 3.0 4.0
286.0 50.68804106622087 36.58511717414058 3.0 4.0
287.0 50.71413885543526 37.04723776440469 3.0 4.0
288.0 50.58568399408845 37.61016555594931 3.0 4.0
289.0 50.522378518596284 38.26945334436701 3.0 4.0
290.0 50.43181719269348 39.02021778309876 3.0 4.0
291.0 50.2817604227287 39.351622264468446 3.0 4.0
292.0 50.18993313837095 36.38189098213906 3.0 4.0
293.0 50.24029060615946 36.38189098213906 3.0 4.0
294.0 50.15129053889252 34.384447372332666 3.0 4.0
295.0 50.09461743764904 33.1001806203411 3.0 4.0
296.0 50.19499002436966 31.889711398760216 3.0 4.0
297.0 50.263233023150036 30.76175269863787 3.0 4.0
298.0 50.483083847724295 29.725698731691185 3.0 4.0
299.0 50.68820753280116 28.791472714688496 3.0 4.0
300.0 50.79839228244252 26.052774509882877 3.0 4.0
301.0 50.931008575446924 23.54750694281035 3.0 4.0
302.0 50.947103215658366 23.54750694281035 3.0 4.0
303.0 50.88378571987014 19.933327587204964 3.0 4.0
304.0 50.689600837790856 19.933327587204964 3.0 4.0
305.0 50.343946464806486 18.186645928443067 3.0 4.0
306.0 50.095551022287964 16.497347486641477 3.0 4.0
307.0 50.00978967088257 14.88494318280068 3.0 4.0
308.0 49.94084687607169 15.02279648039427 3.0 4.0
309.0 50.07690204024937 15.421001738794047 3.0 4.0
310.0 50.315303740138845 16.060204704944617 3.0 4.0
311.0 50.54541426373509 16.913103077261418 3.0 4.0
312.0 50.73803987994242 17.9492600471429 3.0 4.0
313.0 50.8430101483931 17.9492600471429 3.0 4.0
314.0 50.83342587326657 17.9492600471429 3.0 4.0
315.0 50.77464975683159 17.44603585213925 3.0 4.0
316.0 50.649915409164066 17.16281454441143 3.0 4.0
317.0 50.4473933040495 15.713608888349919 2.0 4.0
318.0 50.23814690880011 14.212808631751448 2.0 4.0
319.0 50.00781795283376 13.084449194440928 2.0 4.0
320.0 49.85214648928929 14.145926383336725 2.0 4.0
321.0 49.925923040305555 15.395182875291173 2.0 4.0
322.0 50.068817449001216 16.790356587307507 2.0 4.0
323.0 50.17281871124799 18.298100693168838 2.0 4.0
324.0 50.47524433448959 18.298100693168838 2.0 4.0
325.0 50.70857398995822 18.298100693168838 2.0 4.0
326.0 50.91511237866054 18.298100693168838 2.0 4.0
327.0 51.06903166977491 16.923243131797577 2.0 4.0
328.0 50.960360882033235 15.683489000172184 2.0 4.0
329.0 50.710522965553665 14.613264175743364 2.0 4.0
330.0 50.36115026755852 13.752205188956728 2.0 4.0
331.0 50.027652199491875 15.128926305852561 2.0 4.0
332.0 49.86441650001482 16.815413781929255 2.0 4.0
333.0 49.677913651455015 17.08923675789995 2.0 4.0
334.0 49.71639217130037 15.981141760928908 3.0 5.0
335.0 50.00773380376302 15.287809685075459 3.0 5.0
336.0 50.25621112294407 15.066601420073665 3.0 5.0
337.0 50.5856568050461 15.337958694680657 3.0 5.0
338.0 50.845074489599774 16.06978723671711 3.0 5.0
339.0 50.91313124710881 16.82923488299401 3.0 5.0
340.0 50.930386315962245 17.61272925076091 3.0 5.0
341.0 50.90627553271858 19.24002082867538 3.0 5.0
342.0 50.724664739257044 19.24002082867538 3.0 5.0
343.0 50.551978827205296 20.391377703968367 3.0 5.0
344.0 50.29134763173967 21.05958813961941 3.0 5.0
345.0 50.001173804233474 19.00273729299554 3.0 5.0
346.0 49.96368342014368 16.96343212722532 3.0 5.0
347.0 49.893282759031734 14.948855057796239 3.0 5.0
348.0 49.95819685624384 12.970533480640349 3.0 5.0
349.0 50.17619445887088 11.047961048409286 3.0 5.0
350.0 50.41244297842962 9.216093608886531 3.0 5.0
351.0 50.72576512869023 7.541323043579279 3.0 5.0
352.0 50.960017330165535 7.966822661380412 3.0 5.0
353.0 51.077249697842554 8.489344697216062 3.0 5.0
354.0 51.053936911633265 9.092177047243158 3.0 5.0
355.0 50.92973369327616 9.760450477753647 3.0 5.0
356.0 50.65846981482511 10.48165557528707 3.0 5.0
357.0 50.47188076759195 11.245613085519695 3.0 5.0
358.0 50.18860310493086 11.526967510066495 3.0 5.0
359.0 49.96349228840993 11.526967510066495 3.0 5.0
360.0 49.81149199650445 11.526967510066495 3.0 5.0
361.0 49.839078579376384 11.526967510066495 3.0 5.0
362.0 49.92611075140999 11.526967510066495 3.0 5.0
363.0 50.089287189486676 11.526967510066495 3.0 5.0
364.0 50.34751351163839 11.526967510066495 3.0 5.0
365.0 50.62275127488039 11.526967510066495 3.0 5.0
366.0 50.72925725748114 10.429379511038077 3.0 5.0
367.0 50.78268182479855 10.854667763372953 3.0 5.0
368.0 50.674806809299824 12.361528409532578 3.0 5.0
369.0 50.6220010323855 12.681651392555851 3.0 5.0
370.0 50.55969029915731 12.224403549768368 3.0 5.0
371.0 50.42022266394206 11.834179407667657 3.0 5.0
372.0 50.218317271326114 13.082027269076244 3.0 5.0
373.0 50.21241974947477 14.685656860628393 3.0 5.0
374.0 50.20508312431065 16.54191772324229 3.0 5.0
375.0 50.252938636884835 18.575225734725695 3.0 5.0
376.0 50.36838796135771 20.733557938080402 3.0 5.0
377.0 50.47580468251114 22.98171627529595 3.0 5.0
378.0 50.55606545161447 23.304149342027962 3.0 5.0
379.0 50.654044207196286 23.664476967659393 3.0 5.0
380.0 50.742996891635975 24.060996732268208 3.0 5.0
381.0 50.75210174392359 24.491950868551914 3.0 5.0
382.0 50.70381403629723 24.95555551264889 3.0 5.0
383.0 50.718760444819836 25.45002641535446 3.0 5.0
384.0 50.66691220667567 27.959479257365025 3.0 5.0
385.0 50.52941501836862 30.482758414101156 3.0 5.0
386.0 50.54535510729403 32.86221529384806 3.0 5.0
387.0 50.55228675919263 32.320615728783125 3.0 5.0
388.0 50.63135078720698 30.371181365173225 3.0 5.0
389.0 50.671431545385666 28.42731894103736 3.0 5.0
