#####################################################################
# Alchemist log file - simulation started at: 2023-03-03T08:05+0000 #
#####################################################################
#
# random = 10.0
#
# The columns have the following meaning: 
# time avgDistanceTeam[mean] minDistance[min] inDanger dangerTriggered 
0.0 NaN NaN 0.0 0.0
0.0 NaN NaN 0.0 0.0
1.0 NaN 15.302793335452558 1.0 1.0
2.0 NaN 49.82331638053922 1.0 1.0
3.0 60.66759395282036 48.77206970437475 1.0 1.0
4.0 58.05327157244411 47.71448876525745 1.0 1.0
5.0 56.274123112825976 44.925744100777166 1.0 1.0
6.0 54.43288104435347 44.925744100777166 1.0 1.0
7.0 52.55135608758661 25.274812492191803 1.0 1.0
8.0 51.44483725303534 23.274812492191856 1.0 1.0
9.0 49.63736160941247 21.274812492191913 1.0 1.0
10.0 47.908393211506635 19.27481249219197 1.0 1.0
11.0 46.104377529893995 22.27481249219196 1.0 1.0
12.0 44.219143509722606 20.274812492192016 1.0 1.0
13.0 42.59712014443487 18.274812492192073 1.0 1.0
14.0 40.75026160813789 21.274812492192066 1.0 1.0
15.0 39.152253736618725 19.27481249219212 1.0 1.0
16.0 37.774088762788956 22.274812492192112 1.0 1.0
17.0 36.02895119478149 20.274812492192165 1.0 1.0
18.0 35.469211911243434 21.663189417031827 1.0 1.0
19.0 33.92927134919554 19.065516442481727 1.0 1.0
20.0 32.68303181141707 18.562309831688943 1.0 1.0
21.0 31.19940453156665 18.896415731653597 1.0 1.0
22.0 32.10964231862453 19.276244913800156 1.0 1.0
23.0 30.84382574506097 18.794651062608324 1.0 1.0
24.0 29.79992319331978 19.207055831161796 1.0 1.0
25.0 28.66245091174984 18.550239504478082 1.0 1.0
26.0 27.993864615076856 19.95985513793117 1.0 1.0
27.0 26.765189070324084 18.854206204996927 1.0 1.0
28.0 26.67931884861338 20.096745961366096 1.0 1.0
29.0 25.765286631579713 18.637997896115564 1.0 1.0
30.0 25.476193322301505 18.862425552625226 1.0 1.0
31.0 24.68523719111984 18.862425552625226 1.0 1.0
32.0 24.518870089475683 16.890861606185137 1.0 1.0
33.0 23.945920539003545 14.926865507207781 1.0 1.0
34.0 23.706850456984895 12.973874592473901 1.0 1.0
35.0 23.03969136592265 11.037732104567969 1.0 1.0
36.0 22.879941620378737 9.129164150303204 1.0 1.0
37.0 22.47309994497818 7.269920642906095 1.0 1.0
38.0 22.478062236547906 5.510159183283484 1.0 1.0
39.0 22.432241615576256 3.9839631393995893 1.0 1.0
40.0 22.584938541740186 3.0630165469788313 1.0 1.0
41.0 22.838955687277533 3.300330049864375 1.0 1.0
42.0 23.255394727216544 3.613117672583278 1.0 1.0
43.0 23.8372745583618 3.766149160493261 1.0 1.0
44.0 24.398586688393884 4.828368221483752 1.0 1.0
45.0 25.33856440199601 6.359433926489357 1.0 1.0
46.0 26.02277758349291 5.168749130624806 1.0 1.0
47.0 26.900733924013586 5.168749130624806 1.0 1.0
48.0 27.712748584014058 3.65566798018343 1.0 1.0
49.0 28.786147183355713 2.8305210098746945 1.0 1.0
50.0 29.662831731965245 3.2649333826811344 1.0 1.0
51.0 30.77773613728534 4.616029765864735 1.0 1.0
52.0 31.869903745044248 8.161103627044339 1.0 1.0
53.0 32.951353364947565 10.062383078444176 1.0 1.0
54.0 34.002781284337786 11.995811519999933 1.0 1.0
55.0 35.12982632444473 13.948026198332379 1.0 1.0
56.0 35.921294464090195 13.077669524123866 1.0 1.0
57.0 36.886812750250236 11.237573495451993 1.0 1.0
58.0 37.579454531691255 9.462593510722737 1.0 1.0
59.0 38.55907303362984 7.796509572783853 1.0 1.0
60.0 39.295411289245756 6.325891816213735 1.0 1.0
61.0 40.16974652357803 5.219902076291399 1.0 1.0
62.0 41.05933925810546 4.740982218256959 1.0 1.0
63.0 41.89468665887599 5.0700985000944385 1.0 1.0
64.0 42.71165860543884 6.077400577069896 1.0 1.0
65.0 43.530352875586765 7.49424020635467 1.0 1.0
66.0 44.34585750086726 9.131946501181712 1.0 1.0
67.0 44.98964806588884 8.130102807168322 1.0 1.0
68.0 45.56116128035154 6.1367213924540565 1.0 1.0
69.0 46.01417913345453 4.149714115704895 1.0 1.0
70.0 46.40472790223637 2.1865280779257863 1.0 1.0
71.0 46.85168361440393 0.5845364223343088 1.0 1.0
72.0 47.2350858624609 2.8353830489042666 1.0 1.0
73.0 47.47712667122652 5.179453351655751 1.0 1.0
74.0 47.475290997544796 6.201802434129227 1.0 1.0
75.0 47.6186835987285 7.589373269149545 1.0 1.0
76.0 47.73761850621742 9.1359932517458 1.0 1.0
77.0 47.927729854486955 10.82838913056198 1.0 1.0
78.0 48.19232546175219 12.611171620028044 1.0 1.0
79.0 48.331548057845474 14.448735097552715 1.0 1.0
80.0 48.58387243460648 16.324319549675135 1.0 1.0
81.0 48.97497066793963 18.22628251219625 1.0 1.0
82.0 49.242954189742555 20.14714557549385 1.0 1.0
83.0 49.533179638000846 22.082046830605233 1.0 1.0
84.0 49.801526946819294 24.027601506780613 2.0 2.0
85.0 50.0959692037014 25.981419487641432 2.0 2.0
86.0 50.387286040844536 27.941771220096552 2.0 2.0
87.0 50.590514662021626 29.9073725995386 2.0 2.0
88.0 50.700639487568665 31.87725295242753 2.0 2.0
89.0 50.724101038567966 32.05785848263464 2.0 2.0
90.0 50.67563860212902 32.042392929696895 2.0 2.0
91.0 50.64970696997296 32.042392929696895 2.0 2.0
92.0 50.664353144381295 32.151572839703675 2.0 2.0
93.0 50.63149707450176 32.38413713543065 2.0 2.0
94.0 50.70889142854472 32.73745634165542 2.0 2.0
95.0 50.68021893828927 33.20767623602929 2.0 2.0
96.0 50.765433202580105 33.78991675444163 2.0 2.0
97.0 50.901290492745844 34.47850330688589 2.0 2.0
98.0 50.99218897612426 35.26720726533969 2.0 2.0
99.0 51.11452186687206 35.26720726533969 2.0 2.0
100.0 51.09638938193267 35.26720726533969 2.0 2.0
101.0 51.00526380608401 35.26720726533969 2.0 2.0
102.0 50.911686507172284 35.26720726533969 2.0 2.0
103.0 50.81305685855323 35.26720726533969 2.0 2.0
104.0 50.61962297457007 35.26720726533969 2.0 2.0
105.0 50.46042652711429 35.26720726533969 2.0 2.0
106.0 50.3668400089921 33.71737949648284 2.0 2.0
107.0 50.26763197676777 32.30908117169513 2.0 2.0
108.0 50.28993163956775 32.35430997963526 2.0 2.0
109.0 50.399072959036644 32.37150046708592 2.0 2.0
110.0 50.48438441762855 32.30708414475851 2.0 2.0
111.0 50.644812677070576 31.099811616188664 2.0 2.0
112.0 50.772588554331236 29.976678183961823 2.0 2.0
113.0 50.74979655138528 28.947420146679605 2.0 2.0
114.0 50.78160176768069 28.947420146679605 2.0 2.0
115.0 50.71387073783745 28.947420146679605 2.0 2.0
116.0 50.73541906593268 26.965923774820073 2.0 2.0
117.0 50.635017267429475 24.987377433795984 2.0 2.0
118.0 50.576937978525045 23.012541597799817 2.0 2.0
119.0 50.50411663153095 21.042460677673635 2.0 2.0
120.0 50.614926407050426 18.308898884435287 2.0 2.0
121.0 50.65705170646496 15.914102885923109 2.0 2.0
122.0 50.65723280310234 14.032599021379234 2.0 2.0
123.0 50.79894134452512 14.204211269725391 1.0 2.0
124.0 50.727904980789035 14.64941638070181 1.0 2.0
125.0 50.75185603469654 15.344605121099757 1.0 2.0
126.0 50.70410248705214 16.257736178402773 1.0 2.0
127.0 50.66359005656105 15.634653308479253 1.0 2.0
128.0 50.64029737793198 13.819739184885993 1.0 2.0
129.0 50.59679876513846 12.069205591479397 1.0 2.0
130.0 50.60052412270378 10.416585666760529 1.0 2.0
131.0 50.71059908639727 10.416585666760529 1.0 2.0
132.0 50.68856719560726 9.429036957257628 1.0 2.0
133.0 50.69988308073749 8.792898342570009 1.0 2.0
134.0 50.721472224273235 8.586530684986236 1.0 2.0
135.0 50.738201361159845 8.840278172558696 1.0 2.0
136.0 50.75525759552879 9.517439986372809 1.0 2.0
137.0 50.70158150129072 9.517439986372809 1.0 2.0
138.0 50.51216322278314 10.00032652501438 1.0 2.0
139.0 50.55877013663587 10.832982592962972 1.0 2.0
140.0 50.573713053096995 10.223406237214286 1.0 2.0
141.0 50.55138510536367 7.731458346349088 1.0 2.0
142.0 50.559313030721974 6.8143675290270025 1.0 2.0
143.0 50.59461274036393 8.028236377291984 1.0 2.0
144.0 50.60092136570098 9.604689765052848 1.0 2.0
145.0 50.74547365194984 9.604689765052848 1.0 2.0
146.0 50.7779793850588 9.604689765052848 1.0 2.0
147.0 50.815423504864945 9.604689765052848 1.0 2.0
148.0 50.71769925262617 9.604689765052848 1.0 2.0
149.0 50.779208572706594 10.754920630070693 1.0 2.0
150.0 50.709812520451436 12.763705448608448 1.0 2.0
151.0 50.6998844626315 9.195030040777532 1.0 2.0
152.0 50.65631749887254 5.638957209646858 1.0 2.0
153.0 50.74237269506837 5.638957209646858 1.0 2.0
154.0 50.82599348443002 5.638957209646858 1.0 2.0
155.0 50.82357730917971 5.638957209646858 1.0 2.0
156.0 50.703816268804346 5.638957209646858 1.0 2.0
157.0 50.6971665616005 5.638957209646858 1.0 2.0
158.0 50.671932286952284 4.154358518907301 1.0 2.0
159.0 50.744171593426636 3.2739517260840927 1.0 2.0
160.0 50.72263318277216 3.489735237556057 1.0 2.0
161.0 50.69123959943209 5.809379507418483 1.0 2.0
162.0 50.59301360396459 8.66694645734867 1.0 2.0
163.0 50.71286508930445 10.665312909223404 1.0 2.0
164.0 50.75695858934496 11.919755487437952 1.0 2.0
165.0 50.71003321643054 14.801574244527526 1.0 2.0
166.0 50.672921358829846 16.331823297840817 1.0 2.0
167.0 50.74147236546055 17.903206574738853 2.0 3.0
168.0 50.85510888751736 17.903206574738853 2.0 3.0
169.0 50.81066905720985 17.903206574738853 2.0 3.0
170.0 50.84152481558782 17.903206574738853 2.0 3.0
171.0 50.88909832843408 17.903206574738853 2.0 3.0
172.0 50.846866372911016 19.710932413892554 2.0 3.0
173.0 50.89203994697106 21.55260970934585 2.0 3.0
174.0 50.719188028030494 25.09553662976955 2.0 3.0
175.0 50.65082327617073 28.644996834775725 2.0 3.0
176.0 50.54455422771785 30.09244325147816 2.0 3.0
177.0 50.567040470526344 31.824586023238364 2.0 3.0
178.0 50.586946120367536 33.58650450470223 2.0 3.0
179.0 50.64033673170007 35.37375021193793 2.0 3.0
180.0 50.6615418033347 37.18267144022301 2.0 3.0
181.0 50.72062090052851 39.01025197492828 2.0 3.0
182.0 50.91116075400069 39.284498313205056 2.0 3.0
183.0 51.02595975962841 41.07856330156527 2.0 3.0
184.0 50.944968480203784 42.08286771844275 2.0 3.0
185.0 50.86457623807896 41.31315034854863 2.0 3.0
186.0 50.816931117643996 40.418564135275176 2.0 3.0
187.0 50.8223130692134 38.785203519085364 2.0 3.0
188.0 50.646975809750636 37.18705562871756 2.0 3.0
189.0 50.4899517020167 33.93151743567642 2.0 3.0
190.0 50.49942639480151 30.848178470033172 2.0 3.0
191.0 50.55336174987297 27.99363777997007 2.0 3.0
192.0 50.6006047979009 26.56285472243766 2.0 3.0
193.0 50.69892257009203 25.209655805950433 2.0 3.0
194.0 50.61166828363345 23.948741071826007 2.0 3.0
195.0 50.73882590498981 23.948741071826007 2.0 3.0
196.0 50.79763780608654 23.948741071826007 2.0 3.0
197.0 50.88577098567921 23.046940201554328 2.0 3.0
198.0 50.85543752363654 22.288902946081226 2.0 3.0
199.0 50.84908187888895 21.262697478088167 2.0 3.0
200.0 50.92533838164948 21.262697478088167 2.0 3.0
201.0 51.00429457247718 21.018206988673857 2.0 3.0
202.0 50.8211501927054 20.81477401256062 2.0 3.0
203.0 50.73168713040377 20.857494915826237 2.0 3.0
204.0 50.65867855889326 21.090177285569506 2.0 3.0
205.0 50.60556702649462 21.50676545290768 2.0 3.0
206.0 50.63237914108358 22.096483279580983 2.0 3.0
207.0 50.65741136878089 22.845895804931295 2.0 3.0
208.0 50.59598289399346 23.739780057364758 2.0 3.0
209.0 50.71983748052514 23.739780057364758 2.0 3.0
210.0 50.73055826128391 23.739780057364758 2.0 3.0
211.0 50.82994331909472 21.43754297068498 2.0 3.0
212.0 50.81096232944972 21.43754297068498 2.0 3.0
213.0 50.77452085306246 21.246514402887033 2.0 3.0
214.0 50.779717741268605 22.807668732592102 2.0 3.0
215.0 50.92412474905559 22.807668732592102 2.0 3.0
216.0 50.86836494986019 22.807668732592102 2.0 3.0
217.0 50.854167052933406 22.807668732592102 2.0 3.0
218.0 50.82998438847821 22.807668732592102 2.0 3.0
219.0 50.81019457000718 22.807668732592102 2.0 3.0
220.0 50.69845139224292 22.807668732592102 2.0 3.0
221.0 50.62877667997245 23.06992097635447 2.0 3.0
222.0 50.52769122284766 23.606877783521465 2.0 3.0
223.0 50.56552773974487 24.39950691998188 2.0 3.0
224.0 50.512554272037285 25.423593631587472 2.0 3.0
225.0 50.51619007902681 26.56877694282605 2.0 3.0
226.0 50.565397716453624 23.422809105574967 2.0 3.0
227.0 50.72975681195986 20.443630150607746 2.0 3.0
228.0 50.780926562810265 17.715581940817632 2.0 3.0
229.0 50.97149528929281 15.37294885400791 2.0 3.0
230.0 51.00783370847778 13.616136185835602 2.0 3.0
231.0 51.05792452084228 13.616136185835602 2.0 3.0
232.0 50.914183142011616 13.616136185835602 2.0 3.0
233.0 50.92942055191534 13.616136185835602 2.0 3.0
234.0 50.85308609814351 13.616136185835602 2.0 3.0
235.0 50.64004457178439 13.616136185835602 2.0 3.0
236.0 50.494589928220094 13.831644308964947 2.0 3.0
237.0 50.4585084472608 13.426283658830215 2.0 3.0
238.0 50.51267647056975 13.992889251851489 2.0 3.0
239.0 50.66807102782607 15.424713759851466 2.0 3.0
240.0 50.65749305866405 17.510790688572865 2.0 3.0
241.0 50.85207611467833 18.153265928268652 2.0 3.0
242.0 51.053931067995975 18.985635015321517 2.0 3.0
243.0 51.10797570695342 18.985635015321517 2.0 3.0
244.0 51.15695960912772 18.985635015321517 2.0 3.0
245.0 51.07887222676383 18.985635015321517 2.0 3.0
246.0 50.827311560460096 18.985635015321517 2.0 3.0
247.0 50.62195852599021 18.985635015321517 2.0 3.0
248.0 50.424304601943334 20.931424153650447 2.0 3.0
249.0 50.22839113122934 22.88656260150923 2.0 3.0
250.0 50.14494898181323 25.927908187241655 2.0 3.0
251.0 50.149313711795905 30.38729433091978 3.0 4.0
252.0 50.37189746917426 27.222688039573214 3.0 4.0
253.0 50.62794195056649 23.669839429010253 3.0 4.0
254.0 50.79955707054968 20.150266568665188 3.0 4.0
255.0 50.99296311159115 18.171134982230697 3.0 4.0
256.0 51.06848686716837 18.171134982230697 3.0 4.0
257.0 51.14256544293157 18.171134982230697 3.0 4.0
258.0 51.16686197418101 18.171134982230697 3.0 4.0
259.0 51.005746214648276 18.171134982230697 3.0 4.0
260.0 50.8524493527184 18.171134982230697 3.0 4.0
261.0 50.84142189846629 16.197131252981674 3.0 4.0
262.0 50.77623939155799 12.69998876378965 3.0 4.0
263.0 50.740971390430474 9.317600636260465 3.0 4.0
264.0 50.64614765847423 6.2394686738657406 3.0 4.0
265.0 50.59124501352897 4.19875946354826 3.0 4.0
266.0 50.58361916212289 4.786807389199214 3.0 4.0
267.0 50.57651984451027 6.547511773214994 3.0 4.0
268.0 50.586473945047 6.547511773214994 3.0 4.0
269.0 50.68144893881763 6.547511773214994 3.0 4.0
270.0 50.762882612559224 6.547511773214994 3.0 4.0
271.0 50.8869154009989 6.547511773214994 3.0 4.0
272.0 50.871986405015996 6.547511773214994 3.0 4.0
273.0 50.83555692195492 6.547511773214994 3.0 4.0
274.0 50.92140439175766 6.547511773214994 3.0 4.0
275.0 50.92622779443563 8.53954080872021 3.0 4.0
276.0 50.92088530250929 10.526464773177038 3.0 4.0
277.0 50.80067970539902 12.510206355440229 3.0 4.0
278.0 50.686199092472606 15.579801340568403 3.0 4.0
279.0 50.582509225611744 18.498474310031618 3.0 4.0
280.0 50.565414726144866 17.123286585078933 3.0 4.0
281.0 50.542702770486734 15.864734713256839 3.0 4.0
282.0 50.64473883585487 14.734980426978053 3.0 4.0
283.0 50.680414752727955 12.702429918402888 3.0 4.0
284.0 50.83666225683618 11.645754026709412 3.0 4.0
285.0 50.96949390334089 11.42084292659497 3.0 4.0
286.0 51.0163082206047 11.512402833371585 3.0 4.0
287.0 51.015090979199975 11.910805968773968 3.0 4.0
288.0 51.01956483058386 11.910805968773968 3.0 4.0
289.0 50.85787091817888 11.910805968773968 3.0 4.0
290.0 50.72664060467876 11.910805968773968 3.0 4.0
291.0 50.628678820748696 11.910805968773968 3.0 4.0
292.0 50.54629045680854 12.86543861979645 3.0 4.0
293.0 50.55403502270068 14.05313358051924 3.0 4.0
294.0 50.61466983808066 15.417499608181409 3.0 4.0
295.0 50.83075854377049 18.238936230265118 3.0 4.0
296.0 50.924773534165546 21.44270477469352 3.0 4.0
297.0 51.03296157587218 22.460608412657045 3.0 4.0
298.0 51.128744102758645 22.460608412657045 3.0 4.0
299.0 51.063754541722794 22.460608412657045 3.0 4.0
300.0 50.97003528667959 22.460608412657045 3.0 4.0
301.0 50.80843281058404 22.460608412657045 3.0 4.0
302.0 50.60635120592331 22.460608412657045 3.0 4.0
303.0 50.551485937870616 22.460608412657045 3.0 4.0
304.0 50.551388064891086 22.460608412657045 3.0 4.0
305.0 50.601975259040785 21.021415059944754 3.0 4.0
306.0 50.70882661652923 20.458892561936523 3.0 4.0
307.0 50.86669268683557 20.116209360857688 3.0 4.0
308.0 50.99434999210909 21.7007136601956 3.0 4.0
309.0 50.96420217033008 19.74733922327805 3.0 4.0
310.0 50.902540306015595 16.362642512809018 3.0 4.0
311.0 50.80358727143156 14.921295618071108 3.0 4.0
312.0 50.631365866064044 13.61517697836897 3.0 4.0
313.0 50.453646337455915 13.61517697836897 3.0 4.0
314.0 50.48892617381777 13.61517697836897 3.0 4.0
315.0 50.53089365273636 13.61517697836897 3.0 4.0
316.0 50.60606978109653 13.61517697836897 3.0 4.0
317.0 50.73132512878718 13.61517697836897 3.0 4.0
318.0 50.90762533532696 12.13284558773629 3.0 4.0
319.0 51.03311007277728 10.145654020797714 3.0 4.0
320.0 51.012633091793155 9.506140978991601 3.0 4.0
321.0 50.91607147376229 10.461756515289636 3.0 4.0
322.0 50.74614625368618 12.658553451854631 3.0 4.0
323.0 50.51805782467104 15.58083321913496 3.0 4.0
324.0 50.32778076889446 18.895161113229182 3.0 4.0
325.0 50.16261785149844 18.895161113229182 3.0 4.0
326.0 50.259534117376994 18.895161113229182 3.0 4.0
327.0 50.31723580798704 18.895161113229182 3.0 4.0
328.0 50.46698359283811 18.895161113229182 3.0 4.0
329.0 50.60181188668684 18.895161113229182 3.0 4.0
330.0 50.72505178539234 18.895161113229182 3.0 4.0
331.0 50.89496207722476 18.895161113229182 3.0 4.0
332.0 51.094515132618874 21.123063117655487 3.0 4.0
333.0 51.098914593400366 22.289965509620462 3.0 4.0
334.0 51.02673899927966 24.066740646135216 3.0 5.0
335.0 50.98385208437373 26.32981491282594 3.0 5.0
336.0 50.8773240671213 28.966644581780404 3.0 5.0
337.0 50.68116153536997 31.88470743068145 3.0 5.0
338.0 50.36277472312241 35.01402680356052 3.0 5.0
339.0 50.07430234043536 35.01402680356052 3.0 5.0
340.0 49.97545950717836 35.01402680356052 3.0 5.0
341.0 49.87378994063194 35.01402680356052 3.0 5.0
342.0 49.90586309086954 35.01402680356052 3.0 5.0
343.0 49.98086117768944 35.01402680356052 3.0 5.0
344.0 50.25795306025099 35.01402680356052 3.0 5.0
345.0 50.40869589369769 35.01402680356052 3.0 5.0
346.0 50.54521956825519 38.305952905141005 3.0 5.0
347.0 50.621043822771874 40.69714892813697 3.0 5.0
348.0 50.722831879952615 41.50746933743399 3.0 5.0
349.0 50.64955330636411 41.51990808077406 3.0 5.0
350.0 50.468791553880486 41.51990808077406 3.0 5.0
351.0 50.23089709660053 41.51990808077406 3.0 5.0
352.0 50.114293056096024 41.51990808077406 3.0 5.0
353.0 50.02175683550627 39.990336850407544 3.0 5.0
354.0 50.031791591324314 38.37787131161129 3.0 5.0
355.0 50.0523140021183 38.37787131161129 3.0 5.0
356.0 50.15569968588245 38.37787131161129 3.0 5.0
357.0 50.26906280332517 39.990339400963606 3.0 5.0
358.0 50.43074443823086 41.17080540251041 3.0 5.0
359.0 50.481290035362576 40.51370012332564 3.0 5.0
360.0 50.53357173951116 41.787611178848856 3.0 5.0
361.0 50.61029033124972 41.519905909613556 3.0 5.0
362.0 50.54348625689688 40.26307073997973 3.0 5.0
363.0 50.32783876859789 39.0682371660834 3.0 5.0
364.0 50.21072604489623 39.0682371660834 3.0 5.0
365.0 50.22214603370465 40.263070723131044 3.0 5.0
366.0 50.17176710639991 41.51990574225833 3.0 5.0
367.0 50.11738550556209 39.99026329010778 3.0 5.0
368.0 50.236687386114475 38.37779330939358 3.0 5.0
369.0 50.175704278024 36.80338716950134 3.0 5.0
370.0 50.202160344080546 36.80338716950134 3.0 5.0
371.0 50.20985638517893 38.37779756352729 3.0 5.0
372.0 50.2317798420289 39.990266346144026 3.0 5.0
373.0 50.22915552115956 41.50826634702065 3.0 5.0
374.0 50.1772457757421 41.50826634702065 3.0 5.0
375.0 50.155821468672436 41.50826634702065 3.0 5.0
376.0 50.124958708335924 41.32550536835456 3.0 5.0
377.0 50.012677263535736 40.901052733630046 2.0 5.0
378.0 50.01090764106593 40.33726692354999 2.0 5.0
379.0 49.89061526872166 39.8589258149692 2.0 5.0
380.0 49.83962340931977 39.8589258149692 2.0 5.0
381.0 49.80176825127557 39.8589258149692 2.0 5.0
382.0 49.92072242230779 39.8589258149692 2.0 5.0
383.0 50.045496703021364 39.041283865135306 2.0 5.0
384.0 50.185053393244395 38.33721840104447 2.0 5.0
385.0 50.299631678353826 37.75127459356057 2.0 5.0
386.0 50.32039672932159 39.13177970063275 2.0 5.0
387.0 50.43550262033392 40.563933617954376 2.0 5.0
388.0 50.514098858589385 41.508266347052164 2.0 5.0
389.0 50.36026895348648 41.508266347052164 2.0 5.0
