#####################################################################
# Alchemist log file - simulation started at: 2023-03-03T08:05+0000 #
#####################################################################
#
# random = 0.0
#
# The columns have the following meaning: 
# time avgDistanceTeam[mean] minDistance[min] inDanger dangerTriggered 
0.0 NaN NaN 0.0 0.0
0.0 NaN NaN 0.0 0.0
1.0 NaN 35.14938646424692 1.0 1.0
2.0 NaN 30.197252338070506 1.0 1.0
3.0 62.60584574533919 28.197252338070495 1.0 1.0
4.0 59.13042211252394 26.197252338070484 1.0 1.0
5.0 57.26132272918666 24.197252338070477 1.0 1.0
6.0 55.47190994462456 22.19725233807047 1.0 1.0
7.0 53.50467399569762 20.197252338070463 1.0 1.0
8.0 52.30771073234689 18.197252338070456 1.0 1.0
9.0 50.435451059372824 21.19725233807051 1.0 1.0
10.0 48.690518906556655 19.197252338070502 1.0 1.0
11.0 46.8142389517585 22.19725233807056 1.0 1.0
12.0 45.05019657128923 20.19725233807055 1.0 1.0
13.0 43.260097285924445 18.19725233807054 1.0 1.0
14.0 41.585103235975126 21.197252338070598 1.0 1.0
15.0 40.689506753448875 19.19725233807059 1.0 1.0
16.0 39.380350168669175 22.197252338070648 1.0 1.0
17.0 37.78257853628102 20.197252338070637 1.0 1.0
18.0 36.35901362254523 18.294245891282173 1.0 1.0
19.0 34.981162953530905 19.38003662356757 1.0 1.0
20.0 33.72047047102096 18.19725233807063 1.0 1.0
21.0 32.357514110080764 18.842468049383143 1.0 1.0
22.0 31.270042069424296 18.842468049383143 1.0 1.0
23.0 30.321542064509956 20.29898111596511 1.0 1.0
24.0 29.073862730114772 18.50354978510511 1.0 1.0
25.0 28.32143434338548 16.726205283972202 1.0 1.0
26.0 27.152155236830264 15.004115158982907 1.0 1.0
27.0 26.399786593116545 15.004115158982907 1.0 1.0
28.0 25.60271612478065 13.358605589651475 1.0 1.0
29.0 24.631665174608557 11.822837085344748 1.0 1.0
30.0 24.18929859766116 10.44541096335317 1.0 1.0
31.0 23.482760291049754 9.29692229534386 1.0 1.0
32.0 23.17706862224186 8.47105823268665 1.0 1.0
33.0 22.63968547269002 8.067518460575789 1.0 1.0
34.0 22.322238271733966 8.149284700039914 1.0 1.0
35.0 22.16543269719641 7.915159964929762 1.0 1.0
36.0 22.109747191515066 6.700092024997506 1.0 1.0
37.0 22.043778823448786 5.927285130347899 1.0 1.0
38.0 22.233877924130216 5.777039457148558 1.0 1.0
39.0 22.28676655972548 5.875313012206753 1.0 1.0
40.0 22.579185950817568 4.027453638054731 1.0 1.0
41.0 22.830788161485668 2.4334055605169653 1.0 1.0
42.0 23.241293208252493 1.9032977794422463 1.0 1.0
43.0 23.83347042809873 4.61252965532356 1.0 1.0
44.0 24.513439573699007 5.557453484789703 1.0 1.0
45.0 25.319964907646494 5.800286013972095 1.0 1.0
46.0 26.155738114692202 6.439633125021492 1.0 1.0
47.0 27.078144284901647 6.644510219954248 1.0 1.0
48.0 28.129933791240244 4.776923682685532 1.0 1.0
49.0 29.165881916092186 3.0803382407338527 1.0 1.0
50.0 30.151488005380866 2.0391094831942427 1.0 1.0
51.0 31.314754549099252 2.6129392054883347 1.0 1.0
52.0 32.653487074507446 6.013852251745933 1.0 1.0
53.0 33.789407998183876 7.926910035629001 1.0 1.0
54.0 35.12540301998131 9.874481582345583 1.0 1.0
55.0 36.328240413976644 8.752367298406114 1.0 1.0
56.0 37.36409998328213 7.031670899761421 1.0 1.0
57.0 38.64975539893695 7.259489812071042 1.0 1.0
58.0 39.61320377269824 9.2936173470422 1.0 1.0
59.0 40.87691321530859 8.160858866216577 1.0 1.0
60.0 41.80446651449203 6.452033167778726 1.0 1.0
61.0 42.81280810826283 4.965666779187626 1.0 1.0
62.0 43.83544019024219 3.9606768519709092 1.0 1.0
63.0 44.762990941744505 3.836153762500731 1.0 1.0
64.0 45.60495866744908 4.66317383906697 1.0 1.0
65.0 46.30694402202434 6.064182122691271 1.0 1.0
66.0 46.83918401613643 7.733267057394175 1.0 1.0
67.0 47.30086607305186 9.530610365804872 1.0 1.0
68.0 47.751079841829544 11.395685521661097 1.0 1.0
69.0 48.0757329965598 13.300028686901587 1.0 1.0
70.0 48.48303561148721 15.228915839159848 1.0 1.0
71.0 48.73910904553098 17.174079078658686 1.0 1.0
72.0 48.9164262143789 19.130554272258554 1.0 1.0
73.0 49.29112131127975 21.09519427091483 1.0 1.0
74.0 49.48170286706436 23.0659128562354 1.0 1.0
75.0 49.56851666995619 25.041274936697068 1.0 1.0
76.0 49.65166970363568 27.02026211973266 1.0 1.0
77.0 49.65396243448868 29.002132328207637 1.0 1.0
78.0 49.69493015751546 30.98633237649582 1.0 1.0
79.0 49.7981953125138 32.97244165527447 1.0 1.0
80.0 49.92614906793206 33.59554146020758 1.0 1.0
81.0 50.0832603291888 33.317475969129795 1.0 1.0
82.0 50.291888632485986 33.157925205032896 1.0 1.0
83.0 50.385513374127974 33.118602066687124 1.0 1.0
84.0 50.4698358521687 33.118602066687124 2.0 2.0
85.0 50.40718800387446 33.199933761991 2.0 2.0
86.0 50.293264553097 33.401038917219424 2.0 2.0
87.0 50.23845780562486 33.71977460925001 2.0 2.0
88.0 50.21700627237874 34.15284759207697 2.0 2.0
89.0 50.05428012401218 34.695976677370616 2.0 2.0
90.0 50.05628452486905 34.695976677370616 2.0 2.0
91.0 50.036928195100984 34.695976677370616 2.0 2.0
92.0 50.10497163456927 34.695976677370616 2.0 2.0
93.0 50.25578731478777 34.695976677370616 2.0 2.0
94.0 50.3902899927906 34.695976677370616 2.0 2.0
95.0 50.43484259363419 32.79697869479511 2.0 2.0
96.0 50.455171088525724 32.673525402773805 2.0 2.0
97.0 50.41362066941125 32.55106016309551 2.0 2.0
98.0 50.46403535740466 32.43308738315205 2.0 2.0
99.0 50.42167014917683 32.38579545553828 2.0 2.0
100.0 50.38939848479504 32.39321473844375 1.0 2.0
101.0 50.44416710778052 32.48511438804214 1.0 2.0
102.0 50.506289584781676 33.89191753753343 1.0 2.0
103.0 50.45611078765679 33.89191753753343 1.0 2.0
104.0 50.362705563319174 33.89191753753343 1.0 2.0
105.0 50.23636138581683 33.89191753753343 1.0 2.0
106.0 50.19229004406534 33.89191753753343 1.0 2.0
107.0 50.19740935944525 33.89191753753343 1.0 2.0
108.0 50.225101507305 33.89191753753343 1.0 2.0
109.0 50.34912847627279 32.87717097008763 1.0 2.0
110.0 50.569842578387906 32.979339311039496 1.0 2.0
111.0 50.658621528818884 33.072674811576896 1.0 2.0
112.0 50.74202915566875 33.085607209288725 1.0 2.0
113.0 50.69820822747947 33.045466536134555 1.0 2.0
114.0 50.57729742690893 32.96736398004559 1.0 2.0
115.0 50.591969512337805 33.40684498576933 1.0 2.0
116.0 50.56280599013393 33.21420555149316 1.0 2.0
117.0 50.4588948592057 31.23911381177432 1.0 2.0
118.0 50.25388417224843 29.265109461924347 1.0 2.0
119.0 50.4096549670668 27.292433701240654 1.0 2.0
120.0 50.595607075861736 25.321188516351974 1.0 2.0
121.0 50.64126870900963 25.321188516351974 1.0 2.0
122.0 50.60499297424742 23.583220907081515 1.0 2.0
123.0 50.71010603859988 19.6458006308638 1.0 2.0
124.0 50.804238015460726 17.652530680301407 1.0 2.0
125.0 50.80117825494001 15.6600443489887 1.0 2.0
126.0 50.701737431318456 13.667698602352585 1.0 2.0
127.0 50.53684492672222 11.67574043320392 1.0 2.0
128.0 50.47305905185044 9.684385290969482 1.0 2.0
129.0 50.48491471006279 7.725047460518311 1.0 2.0
130.0 50.41998116712341 5.793474801895775 1.0 2.0
131.0 50.40046642896666 3.930848203015709 1.0 2.0
132.0 50.467276913777425 2.310295560770577 1.0 2.0
133.0 50.575923389090406 1.7949787660703493 1.0 2.0
134.0 50.62519023749955 3.403239296187544 1.0 2.0
135.0 50.68349386462187 3.403239296187544 1.0 2.0
136.0 50.60748560294306 3.0651169989974236 1.0 2.0
137.0 50.60279657299543 3.8932842595552173 1.0 2.0
138.0 50.479477662553734 7.064655688796951 1.0 2.0
139.0 50.4551232959307 10.82832496414294 1.0 2.0
140.0 50.32120257604343 14.72888446620839 1.0 2.0
141.0 50.18426108905275 18.676027713760405 1.0 2.0
142.0 50.21161020193194 21.116246758331975 1.0 2.0
143.0 50.24772197688625 19.87528925869067 1.0 2.0
144.0 50.33676539632063 18.76351476393215 1.0 2.0
145.0 50.38669671587443 16.880462704409396 1.0 2.0
146.0 50.509613241894556 14.928958779813355 1.0 2.0
147.0 50.63626797867477 13.300651545557619 1.0 2.0
148.0 50.72436123981254 12.126286356718232 1.0 2.0
149.0 50.86266961658464 11.545415612874695 1.0 2.0
150.0 50.831354058443715 11.545415612874695 1.0 2.0
151.0 50.74398770528867 11.545415612874695 1.0 2.0
152.0 50.68035979157607 11.545415612874695 1.0 2.0
153.0 50.547487750906875 11.545415612874695 1.0 2.0
154.0 50.34495376735426 11.545415612874695 1.0 2.0
155.0 50.28902514192153 11.545415612874695 1.0 2.0
156.0 50.28895865140017 11.545415612874695 1.0 2.0
157.0 50.34587357306348 11.64728671582044 1.0 2.0
158.0 50.47766150257528 12.415652405094038 1.0 2.0
159.0 50.63506453176617 13.739132176972856 1.0 2.0
160.0 50.67143431357423 15.47604439773421 1.0 2.0
161.0 50.745685167804524 17.503796879241644 1.0 2.0
162.0 50.72798221978725 18.085159741976355 1.0 2.0
163.0 50.76110859163736 16.514632242663623 0.0 2.0
164.0 50.708835735099555 16.78011168100086 0.0 2.0
165.0 50.61470266062458 13.411667629405704 0.0 2.0
166.0 50.47802183203632 11.693486600667066 0.0 2.0
167.0 50.34607620134446 11.693486600667066 1.0 3.0
168.0 50.180842568477985 11.693486600667066 1.0 3.0
169.0 50.24271044693147 11.693486600667066 1.0 3.0
170.0 50.31349381512268 11.693486600667066 1.0 3.0
171.0 50.345536256793245 10.46155836509235 1.0 3.0
172.0 50.29649155947507 9.494501169375214 1.0 3.0
173.0 50.22979799456236 8.091813148436731 1.0 3.0
174.0 50.187282664508956 8.49768858161649 1.0 3.0
175.0 50.10459533936437 10.504120328885346 1.0 3.0
176.0 50.040923463899716 11.686902953573389 1.0 3.0
177.0 49.942967061954924 13.083837391477974 1.0 3.0
178.0 49.91208831119726 14.621556043288688 1.0 3.0
179.0 49.817053276406085 16.266503733337313 1.0 3.0
180.0 49.76065152830657 16.266503733337313 1.0 3.0
181.0 49.52202818824142 16.266503733337313 1.0 3.0
182.0 49.43558430516618 18.19104224677154 1.0 3.0
183.0 49.352041254664215 19.79055119485252 1.0 3.0
184.0 49.408765179863124 17.73239809154193 1.0 3.0
185.0 49.311378778668214 15.567016509022139 1.0 3.0
186.0 49.445616058989096 14.179390860073953 1.0 3.0
187.0 49.545725021893794 13.272768523111951 1.0 3.0
188.0 49.65074534649759 12.620530775355537 1.0 3.0
189.0 49.78864425130555 12.26334814197959 1.0 3.0
190.0 49.819978491964264 12.227099403104827 1.0 3.0
191.0 49.79596923477998 12.227099403104827 1.0 3.0
192.0 49.85773605589888 12.227099403104827 1.0 3.0
193.0 49.86798493013455 12.227099403104827 1.0 3.0
194.0 49.902226923237144 10.229188617443802 1.0 3.0
195.0 49.84372769000569 8.229617790465937 1.0 3.0
196.0 49.81024844770568 6.686435548521282 1.0 3.0
197.0 49.80604364149053 6.015478557798027 1.0 3.0
198.0 49.79187143122932 6.4265008679773805 1.0 3.0
199.0 49.755591330562304 7.69013521763941 1.0 3.0
200.0 49.68813764698459 9.412330653152445 1.0 3.0
201.0 49.649396937658445 11.385569808369416 1.0 3.0
202.0 49.659005312799486 11.385569808369416 1.0 3.0
203.0 49.544921343809015 11.385569808369416 1.0 3.0
204.0 49.60572375999473 11.385569808369416 1.0 3.0
205.0 49.69906547570893 11.385569808369416 1.0 3.0
206.0 49.801873365927925 11.385569808369416 1.0 3.0
207.0 50.01097338697512 11.385569808369416 1.0 3.0
208.0 50.135617493461986 11.209860246171882 1.0 3.0
209.0 50.19061553336354 13.20491940535397 1.0 3.0
210.0 50.16730048486765 15.32383615373441 1.0 3.0
211.0 50.08779847319826 17.52389172715058 1.0 3.0
212.0 49.98524144590809 19.59838258426994 1.0 3.0
213.0 49.806995299553016 21.28580447240781 1.0 3.0
214.0 49.62269590319106 23.19913733073631 1.0 3.0
215.0 49.608033218494 25.28715273944173 1.0 3.0
216.0 49.5529292373585 25.28715273944173 1.0 3.0
217.0 49.390117180350934 25.28715273944173 1.0 3.0
218.0 49.52039380976553 25.28715273944173 1.0 3.0
219.0 49.57079332614187 25.28715273944173 1.0 3.0
220.0 49.675857373656775 25.28715273944173 1.0 3.0
221.0 49.86902941150073 25.532021020125125 1.0 3.0
222.0 49.90522234690596 25.92929088135005 1.0 3.0
223.0 50.01886047939125 28.386958898354443 1.0 3.0
224.0 50.02207089020788 30.91013510240148 1.0 3.0
225.0 49.962844047747524 30.097770533731044 1.0 3.0
226.0 49.82402896962047 27.008592074087485 1.0 3.0
227.0 49.815810543202254 26.026329675545355 1.0 3.0
228.0 49.5738342105247 25.16475305316241 1.0 3.0
229.0 49.50036093034919 24.436683788457536 1.0 3.0
230.0 49.496729246964925 23.854396715427804 1.0 3.0
231.0 49.4183720883431 23.854396715427804 1.0 3.0
232.0 49.43233730769383 23.854396715427804 1.0 3.0
233.0 49.48469041500168 23.854396715427804 1.0 3.0
234.0 49.701910487478344 23.854396715427804 1.0 3.0
235.0 49.960942475999175 22.016871308803776 1.0 3.0
236.0 50.02437472006952 20.210220231354263 1.0 3.0
237.0 50.00805455123247 18.286439970446953 1.0 3.0
238.0 49.95157493342424 16.910467668091787 1.0 3.0
239.0 50.00344323343728 15.274438447573337 1.0 3.0
240.0 49.92589937225191 15.777935598289146 1.0 3.0
241.0 49.8291432473391 17.159073722275668 1.0 3.0
242.0 49.719168633992794 18.652820229904204 1.0 3.0
243.0 49.7347989591231 20.234263799680914 1.0 3.0
244.0 49.61581169145193 20.234263799680914 1.0 3.0
245.0 49.60201962308702 20.234263799680914 1.0 3.0
246.0 49.57714222563601 20.234263799680914 1.0 3.0
247.0 49.69510660047451 20.234263799680914 1.0 3.0
248.0 49.7437193315403 20.234263799680914 1.0 3.0
249.0 49.771457548680004 20.367069635974588 1.0 3.0
250.0 49.794062844804714 20.693226332131403 1.0 3.0
251.0 49.73566288967972 23.098401921991485 2.0 4.0
252.0 49.764858594966036 22.84342006780086 2.0 4.0
253.0 49.69871878987001 20.155061237439263 2.0 4.0
254.0 49.666438008380695 17.47688468613602 2.0 4.0
255.0 49.67338586385263 14.81441375185867 2.0 4.0
256.0 49.71274133785935 14.177559966894341 2.0 4.0
257.0 49.770815061645834 13.584533794669248 2.0 4.0
258.0 49.88011582588118 13.041315509646125 2.0 4.0
259.0 49.81801133508418 12.554372227465711 2.0 4.0
260.0 49.84540837177794 12.130482835789682 2.0 4.0
261.0 49.97388435261513 9.900010058712857 2.0 4.0
262.0 49.85637322861197 7.980108747880792 2.0 4.0
263.0 49.77084316375253 6.645631892142753 2.0 4.0
264.0 49.6477107063756 6.281485661107314 2.0 4.0
265.0 49.48028969184606 7.039890063966241 2.0 4.0
266.0 49.43636462127886 8.629796837230053 2.0 4.0
267.0 49.374339323302316 9.61461380353782 2.0 4.0
268.0 49.46789890982052 10.602273517057279 2.0 4.0
269.0 49.609467089266836 11.592049381787858 2.0 4.0
270.0 49.822181929250796 12.583442057287915 2.0 4.0
271.0 50.018464074983164 13.57609734601356 1.0 4.0
272.0 50.148087970001754 14.569757180123164 1.0 4.0
273.0 50.272999279971366 15.5642291626365 1.0 4.0
274.0 50.13199887080576 16.559366973600728 1.0 4.0
275.0 50.05981233003602 18.6862980099875 1.0 4.0
276.0 50.004794492378444 20.951209590215793 1.0 4.0
277.0 49.88449191327121 23.31392254651598 1.0 4.0
278.0 49.782196817755185 25.747526812526623 1.0 4.0
279.0 49.683709421885005 28.233696898800925 1.0 4.0
280.0 49.679747062994075 26.299767274666802 1.0 4.0
281.0 49.697610784446 23.374971048933965 1.0 4.0
282.0 49.73728366063106 23.374971048933965 1.0 4.0
283.0 49.76357158964609 23.374971048933965 1.0 4.0
284.0 49.776697867666414 23.374971048933965 1.0 4.0
285.0 49.84356161765045 23.374971048933965 1.0 4.0
286.0 49.799867119165135 23.374971048933965 1.0 4.0
287.0 49.88128306108097 23.374971048933965 1.0 4.0
288.0 49.87588388506226 23.374971048933965 1.0 4.0
289.0 49.85577248943961 20.65724381093941 1.0 4.0
290.0 49.77215976828336 18.239375385581383 1.0 4.0
291.0 49.76741825064734 16.25572401919484 1.0 4.0
292.0 49.843734909718535 14.880960252160277 1.0 4.0
293.0 49.91013801065426 14.291887570281881 1.0 4.0
294.0 49.95142517548532 14.584025098326281 1.0 4.0
295.0 50.1909732404367 14.206175959479122 1.0 4.0
296.0 50.26890276359202 14.206175959479122 1.0 4.0
297.0 50.38950427379491 14.206175959479122 1.0 4.0
298.0 50.27285561384634 14.206175959479122 1.0 4.0
299.0 50.18701441681232 14.206175959479122 1.0 4.0
300.0 50.045487911434996 15.70828275172361 1.0 4.0
301.0 49.85880914855394 17.311408527639454 1.0 4.0
302.0 49.73991106608736 18.989986526104374 1.0 4.0
303.0 49.70247584875499 21.116756242312274 1.0 4.0
304.0 49.726596231620015 23.597370962445357 1.0 4.0
305.0 49.82944286612264 24.372306917739333 1.0 4.0
306.0 49.983231866869374 25.282064247778862 1.0 4.0
307.0 50.15234458940283 24.690383001391407 1.0 4.0
308.0 50.26601712592965 23.212798691228848 1.0 4.0
309.0 50.20734132433292 21.862288241991298 1.0 4.0
310.0 50.00718864330777 21.862288241991298 1.0 4.0
311.0 49.91527420113225 21.862288241991298 1.0 4.0
312.0 49.78244275693524 19.879841765720844 1.0 4.0
313.0 49.661954582923954 17.899511376946506 0.0 4.0
314.0 49.560249482027764 15.92268241282591 0.0 4.0
315.0 49.56549743452762 13.95125826211834 0.0 4.0
316.0 49.70278996307205 11.986440022897215 0.0 4.0
317.0 49.885122875548795 9.226517622994347 0.0 4.0
318.0 49.945188245117485 7.274976840613889 0.0 4.0
319.0 50.01614903153413 7.6328636278638475 0.0 4.0
320.0 50.08021729688068 8.451905231868976 0.0 4.0
321.0 50.15983892993501 10.98712428071695 0.0 4.0
322.0 50.09648134997546 10.98712428071695 0.0 4.0
323.0 50.096751424633794 12.51961155665284 0.0 4.0
324.0 50.015759974550456 12.51961155665284 0.0 4.0
325.0 49.97348487997925 12.51961155665284 0.0 4.0
326.0 49.857050372824915 12.51961155665284 0.0 4.0
327.0 49.79275461347447 12.933600006011215 0.0 4.0
328.0 49.83366456209812 13.636564723450805 0.0 4.0
329.0 49.81916750080611 14.585482642536432 0.0 4.0
330.0 49.908232835547324 15.735144371693952 0.0 4.0
331.0 50.11616891344862 19.044603460948995 0.0 4.0
332.0 50.255252124684745 22.487219027365168 0.0 4.0
333.0 50.31865476642485 26.010484959374182 0.0 4.0
334.0 50.32309380054615 28.004885449299145 1.0 5.0
335.0 50.29681816682877 29.99919783304742 1.0 5.0
336.0 50.23880378033814 31.99221165913616 1.0 5.0
337.0 50.16815377158777 31.99221165913616 1.0 5.0
338.0 50.03230482074701 31.99221165913616 1.0 5.0
339.0 49.89235776609154 31.99221165913616 1.0 5.0
340.0 49.74573220209893 31.99221165913616 1.0 5.0
341.0 49.744165416407554 33.03897229018459 1.0 5.0
342.0 49.8220284142486 33.03897130196546 1.0 5.0
343.0 49.86871174719624 33.0389704347906 1.0 5.0
344.0 50.05167791593132 33.03896983041862 1.0 5.0
345.0 50.07453423947358 33.038969501649085 1.0 5.0
346.0 50.25979350359546 34.43311213570786 1.0 5.0
347.0 50.39799818436172 34.43311213570786 1.0 5.0
348.0 50.44533370834564 34.43311213570786 1.0 5.0
349.0 50.43286133377303 34.43311213570786 0.0 5.0
350.0 50.38235258517091 34.43311213570786 0.0 5.0
351.0 50.271401886374704 34.43311213570786 0.0 5.0
352.0 50.18081674106439 33.03896949254493 0.0 5.0
353.0 50.02889113641482 33.03897007422693 0.0 5.0
354.0 49.917408881292396 33.038970574469595 0.0 5.0
355.0 49.87750345436569 33.038971013372525 0.0 5.0
356.0 49.8862268226447 33.03897135089193 0.0 5.0
357.0 49.86095069361031 33.03897158053931 0.0 5.0
358.0 50.0006615500431 34.4331142375603 0.0 5.0
359.0 50.04582858945228 35.88460769040216 0.0 5.0
360.0 50.12177675916278 35.88460769040216 0.0 5.0
361.0 50.27732432757324 35.88460769040216 0.0 5.0
362.0 50.30004923072029 35.88460769040216 0.0 5.0
363.0 50.134837419112365 35.88460769040216 0.0 5.0
364.0 50.07612611179514 35.88460769040216 0.0 5.0
365.0 50.042718004827215 34.43311433730805 0.0 5.0
366.0 49.955885597565704 33.0389717884118 0.0 5.0
367.0 49.907277313919344 31.70974535853015 0.0 5.0
368.0 50.01400732115027 31.70974515270415 0.0 5.0
369.0 50.118576948673976 31.70974498030261 0.0 5.0
370.0 50.188908961321204 33.038971213703775 0.0 5.0
371.0 50.20027901805689 31.70974475947875 0.0 5.0
372.0 50.2529449703785 34.43311370797536 0.0 5.0
373.0 50.29165608959249 35.88460708064888 0.0 5.0
374.0 50.31607328860846 35.88460708064888 0.0 5.0
375.0 50.21954618902356 35.88460708064888 0.0 5.0
376.0 50.10743158538404 35.88460708064888 0.0 5.0
377.0 50.05777909457489 35.88460708064888 0.0 5.0
378.0 50.03171749496072 34.433113701536 0.0 5.0
379.0 49.940521849300445 34.433113701536 0.0 5.0
380.0 49.93135929511831 33.03897112553439 0.0 5.0
381.0 49.85370871232204 33.03897118559273 0.0 5.0
382.0 49.99063142583344 33.03897123587459 0.0 5.0
383.0 50.108818118645104 33.038971279124205 0.0 5.0
384.0 50.18862772212104 33.038971309865374 0.0 5.0
385.0 50.31573899224925 34.433113894831266 0.0 5.0
386.0 50.25825941827497 34.433113894831266 0.0 5.0
387.0 50.318952277957095 34.433113894831266 0.0 5.0
388.0 50.22013261293266 34.433113894831266 0.0 5.0
389.0 50.032699698866935 34.433113894831266 0.0 5.0
