#####################################################################
# Alchemist log file - simulation started at: 2023-03-03T08:05+0000 #
#####################################################################
#
# random = 53.0
#
# The columns have the following meaning: 
# time avgDistanceTeam[mean] minDistance[min] inDanger dangerTriggered 
0.0 NaN NaN 0.0 0.0
0.0 NaN NaN 0.0 0.0
1.0 NaN 44.598296248282814 1.0 1.0
2.0 NaN 34.46830248451885 1.0 1.0
3.0 63.40149003571049 32.46830248451885 1.0 1.0
4.0 59.060760408080384 30.468302484518848 1.0 1.0
5.0 57.24725638758504 28.468302484518844 1.0 1.0
6.0 55.375150027525336 26.46830248451884 1.0 1.0
7.0 53.394806366610474 24.468302484518833 1.0 1.0
8.0 52.562837297130606 22.46830248451883 1.0 1.0
9.0 50.61965364658644 20.468302484518826 1.0 1.0
10.0 49.80199541431518 18.468302484518823 1.0 1.0
11.0 47.82627592387984 21.468302484518787 1.0 1.0
12.0 46.10099603418525 19.468302484518784 1.0 1.0
13.0 45.09199476094245 22.468302484518745 1.0 1.0
14.0 43.33165131621177 20.46830248451874 1.0 1.0
15.0 42.53665278565648 22.468302484518745 1.0 1.0
16.0 41.37220489148193 20.181168326886255 1.0 1.0
17.0 39.78342470909165 18.183633790297804 1.0 1.0
18.0 38.19455137843465 20.776564831063936 1.0 1.0
19.0 36.86300690314763 18.77826822902078 1.0 1.0
20.0 35.3724169491293 21.403789848682155 1.0 1.0
21.0 33.78219442170627 19.40529443541386 1.0 1.0
22.0 32.576779226818196 22.40378292970055 1.0 1.0
23.0 31.14506358581582 19.704672012078802 1.0 1.0
24.0 30.085252275635415 18.699722617485 1.0 1.0
25.0 28.96201341763008 19.96708806832161 1.0 1.0
26.0 27.842005607957493 17.968333611877217 1.0 1.0
27.0 26.898835082813125 17.968333611877217 1.0 1.0
28.0 26.182370743411948 17.968333611877217 1.0 1.0
29.0 25.536608038648 16.32866729945568 1.0 1.0
30.0 25.02090856748003 14.62743998898444 1.0 1.0
31.0 24.330717297713385 13.011480526303258 1.0 1.0
32.0 23.89692933404567 11.516737834187106 1.0 1.0
33.0 23.636825875656605 10.196660002001856 1.0 1.0
34.0 23.463853469573603 9.127349015538535 1.0 1.0
35.0 23.05023436584327 8.405065431421697 1.0 1.0
36.0 23.053897442467708 8.122915102443686 1.0 1.0
37.0 22.77796098838617 8.32576570752117 1.0 1.0
38.0 22.9275879783486 8.98081285138284 1.0 1.0
39.0 22.81062698189546 6.712694472880763 1.0 1.0
40.0 23.146836442446684 4.060094195773937 1.0 1.0
41.0 23.437087842486314 3.4709850399057225 1.0 1.0
42.0 23.928729364753245 5.026715537425335 1.0 1.0
43.0 24.417860104982417 5.497954027648806 1.0 1.0
44.0 25.195493718136227 4.941725835023316 1.0 1.0
45.0 25.90279820037342 4.905688666032335 1.0 1.0
46.0 26.816461001398523 5.6312439431744865 1.0 1.0
47.0 27.510449820863865 6.8815721609993 1.0 1.0
48.0 28.15642790285609 8.426218752592522 1.0 1.0
49.0 29.050173352152022 7.201721643007833 1.0 1.0
50.0 29.80840934197875 5.637851065846272 1.0 1.0
51.0 30.652462110178448 4.43913670187805 1.0 1.0
52.0 31.615873325776345 4.421207379501123 1.0 1.0
53.0 32.299356320203636 5.609602901262518 1.0 1.0
54.0 33.29202112354034 7.033596451471283 1.0 1.0
55.0 34.27502304221226 5.240014657718359 1.0 1.0
56.0 35.08052574503629 3.6666099034471933 1.0 1.0
57.0 36.19139325423748 3.0686442162565553 1.0 1.0
58.0 37.261551761329116 3.0686442162565553 1.0 1.0
59.0 38.435313841932086 4.404866842132583 1.0 1.0
60.0 39.403974835435385 4.697025156115649 1.0 1.0
61.0 40.51801446708277 3.9650575515286786 1.0 1.0
62.0 41.482625078613495 4.169090723009765 1.0 1.0
63.0 42.29298517455863 5.200091684426121 1.0 1.0
64.0 43.08091707190376 6.685849953161484 1.0 1.0
65.0 43.799563722483 8.388100241767576 1.0 1.0
66.0 44.54541113333206 12.06977621190393 1.0 1.0
67.0 44.924947374539926 12.06977621190393 1.0 1.0
68.0 45.44956420923834 13.976377709377784 1.0 1.0
69.0 45.902745142807845 15.905935054090415 1.0 1.0
70.0 46.27892464739972 17.85100574238584 1.0 1.0
71.0 46.710491607469734 19.807020020296896 1.0 1.0
72.0 47.155212527480835 21.77102841287462 1.0 1.0
73.0 47.55480610010129 23.741047033017438 1.0 1.0
74.0 47.92636409544534 25.715694629811154 1.0 1.0
75.0 48.23538321452481 27.69398104938058 1.0 1.0
76.0 48.478637154448286 29.675178557730753 1.0 1.0
77.0 48.817708030703834 31.658740633558892 1.0 1.0
78.0 49.103443321713776 32.012505878893144 1.0 1.0
79.0 49.3442882842225 32.2989850460803 1.0 1.0
80.0 49.72569336936629 32.705478705679724 1.0 1.0
81.0 50.1028145683383 33.22758251405631 1.0 1.0
82.0 50.28216622017416 33.859948938076855 1.0 1.0
83.0 50.39566843053718 34.59653226047263 1.0 1.0
84.0 50.3744618500206 34.59653226047263 2.0 2.0
85.0 50.31024810343831 34.59653226047263 2.0 2.0
86.0 50.2872339486799 34.59653226047263 2.0 2.0
87.0 50.22579804205818 34.59653226047263 2.0 2.0
88.0 50.15138622869929 32.73680386388533 2.0 2.0
89.0 50.161802565165154 30.926714807413752 2.0 2.0
90.0 50.18380669027865 30.955980258664102 2.0 2.0
91.0 50.31279767677661 31.000914764874068 2.0 2.0
92.0 50.534283816409136 31.07683585986247 2.0 2.0
93.0 50.50087451548813 32.80992462182931 2.0 2.0
94.0 50.50693684910123 34.53206142146196 2.0 2.0
95.0 50.533970587828925 36.240023753176764 2.0 2.0
96.0 50.44655662602667 37.926080896679586 2.0 2.0
97.0 50.31934110547043 37.926080896679586 2.0 2.0
98.0 50.10212179421586 37.926080896679586 2.0 2.0
99.0 49.859231055532085 36.32006340911812 2.0 2.0
100.0 49.7769255942368 34.74474119926525 2.0 2.0
101.0 49.76237440355389 33.20727479985352 2.0 2.0
102.0 49.64873779484237 31.71507788089159 2.0 2.0
103.0 49.79188113542851 29.468428288932692 2.0 2.0
104.0 49.8933630483392 25.79071907467975 2.0 2.0
105.0 50.075768759251964 22.16406078894507 2.0 2.0
106.0 50.23942870105745 18.61970994872064 2.0 2.0
107.0 50.264369755421995 18.61970994872064 2.0 2.0
108.0 50.316582479073816 18.61970994872064 2.0 2.0
109.0 50.392699285649975 18.61970994872064 2.0 2.0
110.0 50.28471189340347 18.61970994872064 2.0 2.0
111.0 50.358241493359536 18.61970994872064 2.0 2.0
112.0 50.2340373586879 18.61970994872064 2.0 2.0
113.0 50.11669447905597 16.629347087254942 2.0 2.0
114.0 50.109550685791184 10.228638548970915 2.0 2.0
115.0 50.07879659924148 10.228638548970915 2.0 2.0
116.0 49.96426226663242 7.845800750308094 2.0 2.0
117.0 49.95243301886592 6.862536610018418 2.0 2.0
118.0 49.87350446862046 7.820695813265416 2.0 2.0
119.0 49.98649708021317 9.382870384595865 2.0 2.0
120.0 50.066187445131085 11.081212143654401 2.0 2.0
121.0 50.06180840910686 11.081212143654401 2.0 2.0
122.0 50.17565072355554 11.081212143654401 2.0 2.0
123.0 50.30124881771419 11.081212143654401 1.0 2.0
124.0 50.47156934633721 11.081212143654401 1.0 2.0
125.0 50.43459703498139 11.081212143654401 1.0 2.0
126.0 50.27664024959655 12.020599606978301 1.0 2.0
127.0 50.14744708954174 12.020599606978301 1.0 2.0
128.0 50.10867974803759 13.90694444833453 1.0 2.0
129.0 49.92817419247181 15.822319574768525 1.0 2.0
130.0 49.83824699465411 17.757054072280187 1.0 2.0
131.0 49.80754238719075 19.705289612243696 1.0 2.0
132.0 49.72850138919985 20.82000140140563 1.0 2.0
133.0 49.78198180557035 20.82000140140563 1.0 2.0
134.0 49.83992801393944 20.82000140140563 1.0 2.0
135.0 49.82674096752474 18.9963832505064 1.0 2.0
136.0 49.921817681353595 17.206714864096558 1.0 2.0
137.0 50.02287300890783 15.464483687851601 1.0 2.0
138.0 50.04772625138908 13.312682003753958 1.0 2.0
139.0 50.18959380671225 11.991127447587756 1.0 2.0
140.0 50.14812957468109 11.779761972049146 1.0 2.0
141.0 50.11796599323266 12.727473321452937 1.0 2.0
142.0 50.14022984571808 14.141709167469307 1.0 2.0
143.0 50.09831869270988 15.683196306620326 1.0 2.0
144.0 49.904166168593036 17.318699564536978 1.0 2.0
145.0 49.86840389148581 17.318699564536978 1.0 2.0
146.0 49.80588003660787 17.318699564536978 1.0 2.0
147.0 49.77855299308926 17.318699564536978 1.0 2.0
148.0 49.832437311757076 17.318699564536978 1.0 2.0
149.0 49.942287202099095 18.034366472458373 1.0 2.0
150.0 50.00787834221537 18.94367414868449 1.0 2.0
151.0 50.04213495600089 21.413738434012178 1.0 2.0
152.0 50.12524485676805 20.41392347318723 1.0 2.0
153.0 50.23252067821993 19.414127572929942 1.0 2.0
154.0 50.266775923355596 18.414353837885624 1.0 2.0
155.0 50.238491230577075 17.414606085573897 1.0 2.0
156.0 50.22840096907782 16.41488906342537 1.0 2.0
157.0 50.208145427247715 16.90761834227679 1.0 2.0
158.0 50.190195788470895 17.51216723408367 1.0 2.0
159.0 50.11142914353275 18.21763113205716 1.0 2.0
160.0 49.974096123477864 19.012648850390363 1.0 2.0
161.0 49.99415473718328 19.886574542745425 1.0 2.0
162.0 49.976569357134366 18.96545101021969 1.0 2.0
163.0 50.06334472919192 18.0527232571132 1.0 2.0
164.0 50.150195929993146 17.149731833903076 1.0 2.0
165.0 50.21554362551078 16.258099118644264 1.0 2.0
166.0 50.166474151662705 14.50325976297659 1.0 2.0
167.0 50.13156931780135 12.768085336764395 2.0 3.0
168.0 50.033829135802726 11.122183949334792 2.0 3.0
169.0 49.99387682973503 11.122183949334792 2.0 3.0
170.0 49.988891995019124 11.122183949334792 2.0 3.0
171.0 49.93567019980731 11.122183949334792 2.0 3.0
172.0 50.00081728967982 10.701229436756512 2.0 3.0
173.0 50.057384856227785 10.645719050916817 2.0 3.0
174.0 50.184855857496395 10.961185179932006 2.0 3.0
175.0 50.396355135259796 11.617433249459072 2.0 3.0
176.0 50.557090898908285 10.613505277424306 2.0 3.0
177.0 50.508828120934716 10.040039137319056 2.0 3.0
178.0 50.42641240431446 9.97152909320218 2.0 3.0
179.0 50.42642805844013 8.530263676910414 2.0 3.0
180.0 50.38203531500682 7.355218353192417 2.0 3.0
181.0 50.29308130678401 6.5903642483707205 2.0 3.0
182.0 50.14153099201545 6.384854370696431 2.0 3.0
183.0 50.170623264282945 6.384854370696431 2.0 3.0
184.0 50.231765555003385 6.384854370696431 2.0 3.0
185.0 50.28077095920344 8.260601305991305 2.0 3.0
186.0 50.48694672218851 8.260601305991305 2.0 3.0
187.0 50.628153978387765 9.645633847351343 2.0 3.0
188.0 50.61707248040598 9.645633847351343 2.0 3.0
189.0 50.66316257527193 9.143845850832772 2.0 3.0
190.0 50.55845320199456 9.143845850832772 2.0 3.0
191.0 50.35791861423168 9.143845850832772 2.0 3.0
192.0 50.287413804031914 9.143845850832772 2.0 3.0
193.0 50.03981052950737 9.143845850832772 2.0 3.0
194.0 50.04224203056273 9.143845850832772 2.0 3.0
195.0 50.09167296074083 11.030660415454225 2.0 3.0
196.0 50.149750148871135 13.175112166987743 2.0 3.0
197.0 50.24503014962112 15.461214304319073 2.0 3.0
198.0 50.3935190472334 16.917061802266325 2.0 3.0
199.0 50.44601964511008 15.747016395921126 2.0 3.0
200.0 50.4755594364496 14.645042137780521 2.0 3.0
201.0 50.53296493124526 13.62877105181227 2.0 3.0
202.0 50.442546037455436 12.719539634966663 2.0 3.0
203.0 50.3783788022468 11.939386045446259 2.0 3.0
204.0 50.30717449315654 13.315900946700554 2.0 3.0
205.0 50.33602841868044 14.835009164219768 2.0 3.0
206.0 50.356986469326344 21.64510940923793 2.0 3.0
207.0 50.44968348425566 21.64510940923793 2.0 3.0
208.0 50.50527137717632 24.402218373653824 2.0 3.0
209.0 50.51331309097539 27.13392492175885 2.0 3.0
210.0 50.495578748330836 28.660303859279868 2.0 3.0
211.0 50.42688344728122 27.867230605331677 2.0 3.0
212.0 50.401002890812784 27.243768135049336 2.0 3.0
213.0 50.35250984505231 27.243768135049336 2.0 3.0
214.0 50.30652857459197 27.243768135049336 2.0 3.0
215.0 50.23236034812197 27.243768135049336 2.0 3.0
216.0 50.191206230365985 27.243768135049336 2.0 3.0
217.0 50.30173119889583 27.243768135049336 2.0 3.0
218.0 50.383910248150464 28.610727209827026 2.0 3.0
219.0 50.357319102377396 30.048702340320784 2.0 3.0
220.0 50.41745370712548 29.824632087001277 2.0 3.0
221.0 50.48362238683114 29.421414044475416 2.0 3.0
222.0 50.42780570448315 27.641998604760502 1.0 3.0
223.0 50.352281048738696 27.641998604760502 1.0 3.0
224.0 50.338287585619156 26.972137767825835 1.0 3.0
225.0 50.31206192556871 25.251255216512025 1.0 3.0
226.0 50.17031677562285 23.40413885666091 1.0 3.0
227.0 50.094064377070325 21.58428925641283 1.0 3.0
228.0 49.991404490493736 19.79922657150151 1.0 3.0
229.0 49.955071735634036 18.059269358391425 1.0 3.0
230.0 49.88637083282762 18.059269358391425 1.0 3.0
231.0 49.868434554344475 16.0955539200809 1.0 3.0
232.0 49.9996588135911 14.142011998470759 1.0 3.0
233.0 50.13588559553444 12.203530257083404 1.0 3.0
234.0 50.19827271728932 10.288624761697074 1.0 3.0
235.0 50.24333828714806 8.41340883580861 1.0 3.0
236.0 50.315116109107926 4.67515482563909 1.0 3.0
237.0 50.360695463116144 0.9661290696735999 1.0 3.0
238.0 50.30503204970778 0.9719140847360876 1.0 3.0
239.0 50.16761412770702 2.9855030322929625 1.0 3.0
240.0 50.05054027933068 1.0598550994352955 1.0 3.0
241.0 50.02083312642209 1.2937595636939048 1.0 3.0
242.0 50.05948777112995 3.7563401969409425 1.0 3.0
243.0 50.09027372448399 2.3923144083951873 1.0 3.0
244.0 50.14613096973635 5.210413066275721 1.0 3.0
245.0 50.235716416162454 8.8406482288346 1.0 3.0
246.0 50.27570620241277 12.62682034674858 1.0 3.0
247.0 50.28840953086167 14.622896592584885 1.0 3.0
248.0 50.31550599559961 18.461611721678878 1.0 3.0
249.0 50.265424427222676 22.315529888345818 1.0 3.0
250.0 50.19503712090093 23.237987701208137 1.0 3.0
251.0 50.30364586695689 20.505075246404925 2.0 4.0
252.0 50.27678530643558 17.80171407920604 2.0 4.0
253.0 50.25478283570476 17.125988139907427 2.0 4.0
254.0 50.18258432391417 16.483261672942604 2.0 4.0
255.0 50.17119216459953 15.877542662173699 2.0 4.0
256.0 50.11826316367074 15.313223259640496 2.0 4.0
257.0 50.02483550901676 14.795041473752013 2.0 4.0
258.0 50.009047486857824 12.459457227365709 2.0 4.0
259.0 50.02437503424496 10.366920175082178 2.0 4.0
260.0 50.062164212015034 8.69566068645059 2.0 4.0
261.0 50.21401454003598 7.735609557702604 2.0 4.0
262.0 50.397955564950344 7.762882531119176 2.0 4.0
263.0 50.48005464901012 8.435600597307332 2.0 4.0
264.0 50.45976011025229 9.168226092468986 2.0 4.0
265.0 50.421813668568795 9.947531448955857 2.0 4.0
266.0 50.280684246529546 10.763382097338328 2.0 4.0
267.0 50.122491189964656 11.608075052248758 2.0 4.0
268.0 49.98426538662235 12.475753230325514 2.0 4.0
269.0 49.85605116670909 13.36193963873937 2.0 4.0
270.0 49.91028437218107 15.205146471998098 2.0 4.0
271.0 49.988871708043845 17.31504956775078 2.0 4.0
272.0 50.14604659544159 19.770886795037235 2.0 4.0
273.0 50.28894446433459 22.309572067349404 2.0 4.0
274.0 50.40487345271728 24.935644636447336 2.0 4.0
275.0 50.545786711617545 27.630297471173456 2.0 4.0
276.0 50.421886194608 28.629520605427654 2.0 4.0
277.0 50.375159837227265 29.628796159271793 2.0 4.0
278.0 50.33316682794436 30.628119001968624 2.0 4.0
279.0 50.161295870026926 31.627484651009222 2.0 4.0
280.0 50.09708850568861 32.62688917290303 2.0 4.0
281.0 49.99393816767761 33.6263291016425 2.0 4.0
282.0 50.02248312422568 36.14656437980002 2.0 4.0
283.0 49.95194253318211 35.83686529210722 2.0 4.0
284.0 50.075291037995136 34.73547292008177 2.0 4.0
285.0 50.191268062747014 33.722113301667136 2.0 4.0
286.0 50.319260924497115 32.81146416083217 2.0 4.0
287.0 50.37676414406428 31.3374236779907 2.0 4.0
288.0 50.57355277968288 31.3374236779907 2.0 4.0
289.0 50.60536020815652 32.184133407107986 2.0 4.0
290.0 50.48463206304144 33.13008849324219 2.0 4.0
291.0 50.25828995190702 34.16704675534058 2.0 4.0
292.0 50.07079356789912 35.28698633217312 2.0 4.0
293.0 49.90553146162845 36.48226589518677 2.0 4.0
294.0 49.83624421972022 36.48226589518677 2.0 4.0
295.0 49.75872819213478 36.45043006013075 2.0 4.0
296.0 49.83052987919206 36.52239975608506 2.0 4.0
297.0 50.012031688479944 36.699219418273614 2.0 4.0
298.0 50.23361635151596 35.97447645284191 2.0 4.0
299.0 50.252527645231844 35.97447645439984 2.0 4.0
300.0 50.29683662254379 35.97447645558863 2.0 4.0
301.0 50.37983050265867 36.8967015095938 2.0 4.0
302.0 50.29624588337919 38.98427675749005 2.0 4.0
303.0 50.23746455290857 38.98427675749005 2.0 4.0
304.0 50.208695962720675 38.98427675749005 2.0 4.0
305.0 50.07721670140752 38.98427675749005 2.0 4.0
306.0 50.1201470226353 38.98427675749005 2.0 4.0
307.0 50.161306148691715 38.98427675749005 2.0 4.0
308.0 50.23096140166554 37.9021135070558 2.0 4.0
309.0 50.29787169052951 37.902113506405435 2.0 4.0
310.0 50.38517578384931 37.90211350584681 2.0 4.0
311.0 50.643318488263695 37.90211350532331 2.0 4.0
312.0 50.744432024884496 37.90211350490542 2.0 4.0
313.0 50.798003161587786 38.98427675462677 2.0 4.0
314.0 50.875029384454216 37.90211350448498 2.0 4.0
315.0 50.8856349920985 37.90211350448498 2.0 4.0
316.0 50.77556483780586 37.90211350448498 2.0 4.0
317.0 50.54672634532645 37.90211350448498 2.0 4.0
318.0 50.366416857051384 37.90211350448498 2.0 4.0
319.0 50.13210234565532 37.90211350448498 2.0 4.0
320.0 50.037756672502105 38.984276754752734 2.0 4.0
321.0 49.97533292857166 40.13698369426199 2.0 4.0
322.0 49.91381790460474 40.13698369455124 2.0 4.0
323.0 50.03403288331531 38.98427675556048 2.0 4.0
324.0 50.30826481961532 38.98427675556048 2.0 4.0
325.0 50.65165384212395 38.984276755729866 2.0 4.0
326.0 50.74106872169153 37.90211350574799 2.0 4.0
327.0 50.87723807244552 36.896701508879886 2.0 4.0
328.0 50.8919618776483 35.974476455750086 2.0 4.0
329.0 50.915998335973185 35.974476455750086 2.0 4.0
330.0 50.901593379241696 35.974476455750086 2.0 4.0
331.0 50.79427360865461 37.90211350573873 2.0 4.0
332.0 50.49065864417189 38.98427675577477 2.0 4.0
333.0 50.24392213193214 38.98427675577477 2.0 4.0
334.0 50.25144147615381 40.136983695096525 3.0 5.0
335.0 50.1850514300407 40.136983695007714 3.0 5.0
336.0 50.18822147543344 38.98427675558274 3.0 5.0
337.0 50.20338934407849 37.90211350544077 3.0 5.0
338.0 50.38406637773378 36.896701508446874 3.0 5.0
339.0 50.65438465812929 35.97447645524064 3.0 5.0
340.0 50.770274023482266 35.14198813748904 3.0 5.0
341.0 50.65334953108445 35.97447645522731 3.0 5.0
342.0 50.64217930557424 36.89670150839841 3.0 5.0
343.0 50.65908853602472 37.90211350534287 3.0 5.0
344.0 50.618722809713994 38.98427675542758 3.0 5.0
345.0 50.548074091896346 40.13698369478763 3.0 5.0
346.0 50.36790029964499 39.46027124721312 3.0 5.0
347.0 50.28531618092997 41.354335759232484 3.0 5.0
348.0 50.290272252442655 40.1369836948325 3.0 5.0
349.0 50.27148202584285 38.98427675551616 3.0 5.0
350.0 50.277620629386526 37.90211350547273 3.0 5.0
351.0 50.3291675754584 36.8967015085701 3.0 5.0
352.0 50.459881412945585 35.974476455436026 3.0 5.0
353.0 50.59595279041784 35.14198813772958 3.0 5.0
354.0 50.576787725110705 35.141988137728454 3.0 5.0
355.0 50.63793823436802 35.97447645544417 3.0 5.0
356.0 50.687340001168515 36.89670150859585 3.0 5.0
357.0 50.64948883516446 37.90211350552321 3.0 5.0
358.0 50.63409077018271 38.98427675559444 3.0 5.0
359.0 50.527201423282264 40.1369836949424 3.0 5.0
360.0 50.354563836125685 41.354335759379 3.0 5.0
361.0 50.28179493676528 41.354335759379 3.0 5.0
362.0 50.19055081653529 40.13698369492394 3.0 5.0
363.0 50.20435317802054 38.984276755558064 3.0 5.0
364.0 50.15460008985999 37.90211350546899 3.0 5.0
365.0 50.24020696605766 36.89670150852366 3.0 5.0
366.0 50.41157690879542 35.97447645535996 3.0 5.0
367.0 50.50796521394041 35.14198813763109 3.0 5.0
368.0 50.60754254820408 35.141988137631834 3.0 5.0
369.0 50.64955122817561 32.13742789401845 3.0 5.0
370.0 50.75839616987033 33.48746396635911 3.0 5.0
371.0 50.770272318244615 35.178596273950625 3.0 5.0
372.0 50.692072759691655 36.87698930100859 3.0 5.0
373.0 50.58838467637017 38.58061312504347 3.0 5.0
374.0 50.54097895054171 39.016824246393796 3.0 5.0
375.0 50.41169538652644 39.54948090156741 3.0 5.0
376.0 50.28957947195018 40.13698369488083 3.0 5.0
377.0 50.22040983653349 40.13698369488083 3.0 5.0
378.0 50.15429671083332 38.98427675553578 3.0 5.0
379.0 50.22276153952453 37.90211350546984 3.0 5.0
380.0 50.2742347023916 37.90211350546984 3.0 5.0
381.0 50.40233475832151 37.90211350547339 3.0 5.0
382.0 50.50268398145535 37.902113505475945 3.0 5.0
383.0 50.589056688196585 37.902113505477466 3.0 5.0
384.0 50.60850646302827 37.90211350547777 3.0 5.0
385.0 50.52583129425874 37.90211350547777 3.0 5.0
386.0 50.539035837397435 37.90211350547777 3.0 5.0
387.0 50.499098131836675 37.90211350547777 3.0 5.0
388.0 50.559529256204456 37.90211350547777 3.0 5.0
389.0 50.55738192439189 37.90211350547777 3.0 5.0
