#####################################################################
# Alchemist log file - simulation started at: 2023-03-03T08:05+0000 #
#####################################################################
#
# random = 62.0
#
# The columns have the following meaning: 
# time avgDistanceTeam[mean] minDistance[min] inDanger dangerTriggered 
0.0 NaN NaN 0.0 0.0
0.0 NaN NaN 0.0 0.0
1.0 NaN 47.77815102829893 1.0 1.0
2.0 NaN 55.215739670846006 1.0 1.0
3.0 59.17697049758736 53.21573967084604 1.0 1.0
4.0 57.16282187052274 51.21573967084607 1.0 1.0
5.0 55.40344670070189 49.2157396708461 1.0 1.0
6.0 54.302196486962146 47.215739670846126 1.0 1.0
7.0 53.45872901119694 48.591832682645645 1.0 1.0
8.0 52.18373288268446 46.59227262643672 1.0 1.0
9.0 50.67308022833314 44.59227262643671 1.0 1.0
10.0 48.89353100220416 41.48665929476278 1.0 1.0
11.0 47.057192294537614 22.6617882931288 1.0 1.0
12.0 45.899560740199746 20.66178829312875 1.0 1.0
13.0 44.083630042311654 18.6617882931287 1.0 1.0
14.0 42.45371640901479 21.661788293128723 1.0 1.0
15.0 40.91317352186378 19.661788293128676 1.0 1.0
16.0 39.48381070824471 22.661788293128698 1.0 1.0
17.0 37.98571773628883 20.661788293128648 1.0 1.0
18.0 37.04178016499756 22.661788293128698 1.0 1.0
19.0 35.82527814459054 20.661788293128648 1.0 1.0
20.0 34.280782892703954 18.6617882931286 1.0 1.0
21.0 33.12406587791204 21.15866031895293 1.0 1.0
22.0 31.873140863807883 18.684408406738342 1.0 1.0
23.0 31.115975669261072 19.1601625921247 1.0 1.0
24.0 29.873987973840915 18.684408406738342 1.0 1.0
25.0 29.292021842039716 17.948215915613936 1.0 1.0
26.0 27.955266395834396 17.198876356543977 1.0 1.0
27.0 27.31695192214941 14.697230173749261 1.0 1.0
28.0 26.50266592292992 13.310912165203135 1.0 1.0
29.0 25.83777807763208 11.289581696709414 1.0 1.0
30.0 25.168166806624036 9.3899963400957 1.0 1.0
31.0 24.588587187136675 7.6973329655699825 1.0 1.0
32.0 24.13529775301186 5.9948688187384676 1.0 1.0
33.0 23.554095318002837 4.541802453312457 1.0 1.0
34.0 23.450059723376597 2.9517700776437197 1.0 1.0
35.0 23.201660828815154 1.4709436516931265 1.0 1.0
36.0 23.091664017880504 3.3790386848276777 1.0 1.0
37.0 22.8863168971477 3.516133997638907 1.0 1.0
38.0 22.71950082861529 4.6161124493606165 1.0 1.0
39.0 22.72291574454823 6.184964834251824 1.0 1.0
40.0 22.736648618066983 4.876896054289621 1.0 1.0
41.0 22.75147664975805 4.379448036938687 1.0 1.0
42.0 22.93923224878716 5.5703234774892145 1.0 1.0
43.0 22.967758995620613 7.683298550993335 1.0 1.0
44.0 23.42677965064911 5.849616707629735 1.0 1.0
45.0 23.74169911940079 4.161343530209878 1.0 1.0
46.0 24.467494191470873 2.741223937750631 1.0 1.0
47.0 25.03751642758774 2.741223937750631 1.0 1.0
48.0 25.97142022455229 3.822704935923761 1.0 1.0
49.0 26.936842877770893 1.8947675486679292 1.0 1.0
50.0 28.136282398432886 3.1384018551707706 1.0 1.0
51.0 29.086097865153544 7.573731204738003 1.0 1.0
52.0 30.472612534391192 7.599875165766542 1.0 1.0
53.0 31.57383091956212 5.152066058261082 1.0 1.0
54.0 32.96688900743806 5.151810435852381 1.0 1.0
55.0 34.2526696583699 6.348013661924227 1.0 1.0
56.0 35.277290346437056 6.348013661924227 1.0 1.0
57.0 36.55104706211373 4.620751221263186 1.0 1.0
58.0 37.416982418832234 3.2257411932195312 1.0 1.0
59.0 38.446538429302436 2.731203149247793 1.0 1.0
60.0 39.448699526322336 3.5374475316657787 1.0 1.0
61.0 40.536451385700644 5.056441380666358 1.0 1.0
62.0 41.59266269496986 6.828005845994968 1.0 1.0
63.0 42.44782729719785 8.699179744652282 1.0 1.0
64.0 43.28863184987328 10.617428720109022 1.0 1.0
65.0 44.07015959735353 12.56120444159013 1.0 1.0
66.0 44.933996214364115 10.994878352168891 1.0 1.0
67.0 45.485346011822834 9.069320861109162 1.0 1.0
68.0 46.112165775015974 7.184553694176653 1.0 1.0
69.0 46.52525516115711 5.383590129947191 1.0 1.0
70.0 47.0575629610808 3.7879115076809917 1.0 1.0
71.0 47.648499421516675 2.7773196598121244 1.0 1.0
72.0 48.209497636677426 3.0130939904914893 1.0 1.0
73.0 48.65654074175474 4.294643908206251 1.0 1.0
74.0 49.051852782529956 5.984078642619124 1.0 1.0
75.0 49.21696870188799 7.82140831972144 1.0 1.0
76.0 49.44527924298393 9.723150672830558 1.0 1.0
77.0 49.57569932293228 11.657825265002176 1.0 1.0
78.0 49.57299813533816 13.611396725247568 1.0 1.0
79.0 49.49137456744651 15.576756777803176 1.0 1.0
80.0 49.2518325013666 17.549945373635612 1.0 1.0
81.0 49.10124009639566 19.52858964493726 1.0 1.0
82.0 48.99972218858043 21.51118417063801 1.0 1.0
83.0 49.02136425081842 23.496729034609558 1.0 1.0
84.0 49.141073048069714 25.484534648068816 2.0 2.0
85.0 49.36922334308111 27.474110306457202 2.0 2.0
86.0 49.609268282393856 28.767556993473214 2.0 2.0
87.0 49.89298326697476 28.94990322022343 2.0 2.0
88.0 50.243272442712 29.132251938357733 2.0 2.0
89.0 50.151660601706425 29.31460310138386 2.0 2.0
90.0 50.16256380783965 29.496956663958613 2.0 2.0
91.0 49.99956503713248 29.747136483272065 2.0 2.0
92.0 49.87016572038044 29.929638153983472 2.0 2.0
93.0 49.72616663242 30.11214035159942 2.0 2.0
94.0 49.56896446380559 30.11214035159942 2.0 2.0
95.0 49.62584293978077 30.226394041157487 2.0 2.0
96.0 49.78745394918274 30.471770491853924 2.0 2.0
97.0 49.896744868535826 30.845140574896362 2.0 2.0
98.0 49.959655643819275 30.845140574896362 2.0 2.0
99.0 50.002006986654855 30.845140574896362 2.0 2.0
100.0 50.23771815843511 30.845140574896362 2.0 2.0
101.0 50.42473909752047 30.845140574896362 2.0 2.0
102.0 50.44672304262396 30.845140574896362 2.0 2.0
103.0 50.37186691575614 30.845140574896362 2.0 2.0
104.0 50.31654448140148 30.845140574896362 2.0 2.0
105.0 50.325248609291805 30.79736037712581 2.0 2.0
106.0 50.343706016507696 30.740192235990545 2.0 2.0
107.0 50.21997459675873 30.679678691078244 2.0 2.0
108.0 50.3052043230567 30.61890309128488 2.0 2.0
109.0 50.38875153892335 30.557373596095772 2.0 2.0
110.0 50.38198176035912 32.24195481960938 2.0 2.0
111.0 50.34087707053642 30.4562866229262 2.0 2.0
112.0 50.255885132280916 30.4562866229262 2.0 2.0
113.0 50.13668368735428 30.4562866229262 1.0 2.0
114.0 50.1739495197568 30.4562866229262 1.0 2.0
115.0 50.07326046895169 30.4562866229262 1.0 2.0
116.0 50.03181945740335 30.4562866229262 1.0 2.0
117.0 50.0416149026783 30.4562866229262 1.0 2.0
118.0 50.07131671756651 30.4562866229262 1.0 2.0
119.0 50.06446948126954 30.4562866229262 1.0 2.0
120.0 50.045711001134684 30.4562866229262 1.0 2.0
121.0 50.02003938997318 30.31796235549516 1.0 2.0
122.0 50.0719036143002 28.429724883150318 1.0 2.0
123.0 50.20909951523327 26.617965223834865 1.0 2.0
124.0 50.24285847853819 26.140048782898997 1.0 2.0
125.0 50.16647528780692 24.69426256032347 1.0 2.0
126.0 50.21024169569886 21.98282040156886 1.0 2.0
127.0 50.27725896359416 20.19956860289276 1.0 2.0
128.0 50.3764371519429 18.205157374137375 1.0 2.0
129.0 50.4401727889383 16.21012360967042 1.0 2.0
130.0 50.26944727740524 14.423052227451572 1.0 2.0
131.0 50.215872088017974 13.343022951117156 1.0 2.0
132.0 50.2811607395276 13.24091446492095 1.0 2.0
133.0 50.16275181143811 13.142678933283843 1.0 2.0
134.0 50.211315691497376 13.24429141533718 1.0 2.0
135.0 50.13633623811103 13.24429141533718 1.0 2.0
136.0 50.1746025387634 13.24429141533718 1.0 2.0
137.0 50.23853780912243 11.43324304551436 1.0 2.0
138.0 50.29707141005115 9.692722742693334 1.0 2.0
139.0 50.230587012681205 8.069769168404308 1.0 2.0
140.0 50.2199695620409 6.655334303844787 1.0 2.0
141.0 50.19967723358426 4.0827698478377625 1.0 2.0
142.0 50.159116016088305 4.290743405583985 1.0 2.0
143.0 50.05840091231831 5.146771040962483 1.0 2.0
144.0 49.95518404051644 6.526481403641421 1.0 2.0
145.0 49.99902732837938 8.16875320465821 1.0 2.0
146.0 50.05844539320579 10.79601581688467 1.0 2.0
147.0 50.11884781616803 9.645142948241382 1.0 2.0
148.0 50.33972963812863 8.912815956500953 1.0 2.0
149.0 50.4144898939302 8.659583822364986 1.0 2.0
150.0 50.539451909191165 8.92972714171529 1.0 2.0
151.0 50.53031897558497 9.688756058474782 1.0 2.0
152.0 50.55683387837774 9.688756058474782 1.0 2.0
153.0 50.39645246742933 8.20610290578528 1.0 2.0
154.0 50.21725420920725 6.982082395049809 1.0 2.0
155.0 50.104565262589155 6.173728816553875 0.0 2.0
156.0 49.947233435338084 5.950377048242189 0.0 2.0
157.0 49.73915082499498 6.373437382337828 0.0 2.0
158.0 49.652945095667945 4.835427014286281 0.0 2.0
159.0 49.57654959791883 5.1475444270735755 0.0 2.0
160.0 49.7810345568944 6.089428951300605 0.0 2.0
161.0 49.856545120231736 7.429130049446673 0.0 2.0
162.0 49.98318894230316 7.429130049446673 0.0 2.0
163.0 50.10946034525785 7.429130049446673 0.0 2.0
164.0 50.25966962247967 5.563397270035474 0.0 2.0
165.0 50.36511156242976 3.8364780551632807 0.0 2.0
166.0 50.32444515786806 2.5467113207548135 0.0 2.0
167.0 50.19163512686114 2.5010983774290807 1.0 3.0
168.0 50.19609003663348 2.4715874612063398 1.0 3.0
169.0 50.089146902159456 3.0516902282827663 1.0 3.0
170.0 50.06888902555666 3.208122933669708 1.0 3.0
171.0 49.987147972449094 3.208122933669708 1.0 3.0
172.0 49.94175087938367 4.434039558815752 1.0 3.0
173.0 49.952979941477004 4.723023651040794 1.0 3.0
174.0 50.080827824453095 3.166067992991991 1.0 3.0
175.0 50.288999429834824 2.3183010254565155 1.0 3.0
176.0 50.3680370192289 2.9535268325957413 1.0 3.0
177.0 50.45444758421528 2.5378120650569715 1.0 3.0
178.0 50.49770887996461 2.4814631579441957 1.0 3.0
179.0 50.557735338350184 2.806212524189853 1.0 3.0
180.0 50.41434400725955 3.4047023449349494 1.0 3.0
181.0 50.28132857399796 4.160428750055823 1.0 3.0
182.0 50.11893165396661 5.002632977840421 1.0 3.0
183.0 49.9923895919153 5.894362224843494 1.0 3.0
184.0 50.038633496795164 7.572146211018125 1.0 3.0
185.0 50.03057378974315 9.402589282987709 1.0 3.0
186.0 49.89049345615164 12.697629282061392 1.0 3.0
187.0 49.89785562058512 14.72400648528011 1.0 3.0
188.0 49.997520525272655 16.7344159071487 1.0 3.0
189.0 50.14219229142718 17.849713078433087 1.0 3.0
190.0 50.212171234989235 17.849713078433087 1.0 3.0
191.0 50.23852823757545 18.463424590169126 1.0 3.0
192.0 50.33266589235875 19.1097838347622 1.0 3.0
193.0 50.32287647492255 19.78559144493324 1.0 3.0
194.0 50.067019387066566 20.487933508294386 1.0 3.0
195.0 49.941327522750186 22.288110924292713 1.0 3.0
196.0 49.875841448052235 24.131665401446533 1.0 3.0
197.0 49.85995386925452 26.008721346917277 1.0 3.0
198.0 49.83470419469645 25.653398697320025 1.0 3.0
199.0 49.88137023732541 23.197544664466054 1.0 3.0
200.0 50.02954448404839 20.718982692945804 1.0 3.0
201.0 50.229554199362006 19.2538363545985 1.0 3.0
202.0 50.39696749557777 19.2538363545985 1.0 3.0
203.0 50.51824578909174 19.2538363545985 1.0 3.0
204.0 50.51492715883087 19.2538363545985 1.0 3.0
205.0 50.44228645655193 19.2538363545985 1.0 3.0
206.0 50.3789628384045 19.2538363545985 1.0 3.0
207.0 50.237591511522915 19.2538363545985 1.0 3.0
208.0 50.07146533640545 18.192167611044773 1.0 3.0
209.0 50.10684407639957 15.636664661592725 1.0 3.0
210.0 50.02612631702684 13.114372747367216 1.0 3.0
211.0 50.05160052312816 10.638710767628178 1.0 3.0
212.0 50.22133667394469 8.245422609416732 1.0 3.0
213.0 50.3281909938748 6.024953940836652 1.0 3.0
214.0 50.48510502983159 4.232106919634198 1.0 3.0
215.0 50.601208618887014 2.2545467970686004 1.0 3.0
216.0 50.67135246992795 2.2545467970686004 1.0 3.0
217.0 50.74630590964342 2.2545467970686004 1.0 3.0
218.0 50.67827768090272 2.2545467970686004 1.0 3.0
219.0 50.48768007642717 2.2545467970686004 1.0 3.0
220.0 50.294787148543435 2.2545467970686004 1.0 3.0
221.0 50.12212631713139 3.5508597452217767 1.0 3.0
222.0 50.02169861022998 5.30354971434718 1.0 3.0
223.0 49.87239227086081 6.4569306132512105 1.0 3.0
224.0 49.949114247657214 10.205420841478755 1.0 3.0
225.0 50.07640564331318 10.346678308966924 1.0 3.0
226.0 50.342615118394605 10.863869249331458 1.0 3.0
227.0 50.54655540562163 11.710605035181128 1.0 3.0
228.0 50.743829433639306 12.822029358391486 1.0 3.0
229.0 50.8430226493948 14.136700966649968 1.0 3.0
230.0 50.833801496199264 14.136700966649968 1.0 3.0
231.0 50.6576496350185 15.369205919062287 1.0 3.0
232.0 50.46668627528785 15.369205919062287 1.0 3.0
233.0 50.3130419238612 16.750033696865234 1.0 3.0
234.0 50.09598915625758 18.24595207463021 1.0 3.0
235.0 50.03370747497593 19.83047394362067 1.0 3.0
236.0 50.04927135571665 21.484427535951113 1.0 3.0
237.0 50.196139254521114 23.939478477185187 1.0 3.0
238.0 50.305773034116584 25.174973220638922 1.0 3.0
239.0 50.54634183618085 27.04650732795271 1.0 3.0
240.0 50.67247702642288 28.364275691887997 1.0 3.0
241.0 50.63899183693321 29.492243957291347 1.0 3.0
242.0 50.675961724065445 30.706224156957482 1.0 3.0
243.0 50.66165751173492 30.706224156957482 1.0 3.0
244.0 50.55780410705818 30.706224156957482 1.0 3.0
245.0 50.48641577791578 30.706224156957482 1.0 3.0
246.0 50.36750605952269 32.03656042494551 1.0 3.0
247.0 50.324356603851164 30.85805600290981 1.0 3.0
248.0 50.28689617323013 28.994804751301626 1.0 3.0
249.0 50.3115554637407 27.14915207369138 1.0 3.0
250.0 50.2820340842149 27.14915207369138 1.0 3.0
251.0 50.303007946298905 27.14915207369138 2.0 4.0
252.0 50.31089543883864 27.14915207369138 2.0 4.0
253.0 50.347469497518965 28.98866664566621 2.0 4.0
254.0 50.42477199182717 30.849014212519037 2.0 4.0
255.0 50.41800410389473 32.72641911694048 2.0 4.0
256.0 50.446580919478976 34.61852102390845 2.0 4.0
257.0 50.485595677244504 36.523106516353465 2.0 4.0
258.0 50.45014586976823 34.61519043558059 2.0 4.0
259.0 50.46825594942525 32.71884398281343 2.0 4.0
260.0 50.46478642188792 30.835789380206727 2.0 4.0
261.0 50.465600607391394 28.968980927766477 2.0 4.0
262.0 50.461114208043085 27.121532577810825 2.0 4.0
263.0 50.44265443790105 27.123052730523682 2.0 4.0
264.0 50.443122796559315 27.124636494392472 2.0 4.0
265.0 50.530012035115085 28.972484515980632 2.0 4.0
266.0 50.568540392099855 30.839015470807368 2.0 4.0
267.0 50.57205898440269 32.721008042589396 2.0 4.0
268.0 50.46848120903329 32.721008042589396 2.0 4.0
269.0 50.4237903299316 32.721008042589396 2.0 4.0
270.0 50.39755666211622 30.839813740744248 2.0 4.0
271.0 50.43245955688083 28.974478040728417 2.0 4.0
272.0 50.37716695517018 27.128290310339437 2.0 4.0
273.0 50.34998422941372 25.305403519701205 2.0 4.0
274.0 50.36724090832641 25.30499415761408 2.0 4.0
275.0 50.44152423505257 25.30499415761408 2.0 4.0
276.0 50.47465169878769 27.12769496526088 2.0 4.0
277.0 50.48890958476444 28.973851378169265 2.0 4.0
278.0 50.554684932571185 30.839238962173354 2.0 4.0
279.0 50.559373958103514 32.72061013741286 2.0 4.0
280.0 50.58132970909464 33.8413370359375 2.0 4.0
281.0 50.478574200147825 33.08080833552691 2.0 4.0
282.0 50.42359083935083 30.53066064999053 2.0 4.0
283.0 50.33322405235119 28.026481827860152 2.0 4.0
284.0 50.31181765905764 25.583359842706077 2.0 4.0
285.0 50.381851525746754 23.21820070021747 2.0 4.0
286.0 50.479904284248654 20.958738348640804 2.0 4.0
287.0 50.572819438451546 18.843877806207136 2.0 4.0
288.0 50.64031782481341 16.84410137605629 2.0 4.0
289.0 50.66571002798844 16.84410137605629 2.0 4.0
290.0 50.675388549242705 16.84410137605629 2.0 4.0
291.0 50.53621197799353 16.84410137605629 2.0 4.0
292.0 50.395769018209094 16.84410137605629 2.0 4.0
293.0 50.284347442774646 16.84410137605629 2.0 4.0
294.0 50.240655937364075 16.84410137605629 2.0 4.0
295.0 50.23655131635253 14.934425302787426 2.0 4.0
296.0 50.26737030359453 13.3595685315932 2.0 4.0
297.0 50.29136456293724 12.247561541873909 2.0 4.0
298.0 50.401398842949696 11.72953611671765 2.0 4.0
299.0 50.52124267086887 11.8837397257759 2.0 4.0
300.0 50.55725799791943 12.684414896801549 2.0 4.0
301.0 50.57307464362765 14.5562308463507 2.0 4.0
302.0 50.57884483699974 14.5562308463507 2.0 4.0
303.0 50.56784662353645 14.5562308463507 2.0 4.0
304.0 50.53449100667155 14.5562308463507 2.0 4.0
305.0 50.430841319505305 14.5562308463507 2.0 4.0
306.0 50.352729491021194 14.5562308463507 2.0 4.0
307.0 50.25594656880455 14.5562308463507 2.0 4.0
308.0 50.21901081453205 14.020339354627907 2.0 4.0
309.0 50.24331350188544 15.75452261200553 2.0 4.0
310.0 50.40313911821977 17.76883840532985 2.0 4.0
311.0 50.38080748245563 19.979014620001628 2.0 4.0
312.0 50.417425106408366 22.32714676666468 2.0 4.0
313.0 50.41500921392035 21.365948395161805 2.0 4.0
314.0 50.457782868037796 20.14064028391789 2.0 4.0
315.0 50.487492215766835 19.14352192062845 2.0 4.0
316.0 50.49430270065974 18.146720695623994 2.0 4.0
317.0 50.45660480620825 17.15029190668177 2.0 4.0
318.0 50.44598753568804 16.154304471681854 2.0 4.0
319.0 50.42943357759953 15.158845386216143 2.0 4.0
320.0 50.34340278125223 14.101295299315268 2.0 4.0
321.0 50.30805269596746 13.337022231175816 2.0 4.0
322.0 50.18806224111791 12.918166814234365 2.0 4.0
323.0 50.0961524165647 12.878484966173371 2.0 4.0
324.0 50.220892394763084 13.221395194544609 2.0 4.0
325.0 50.34247000271164 12.472720950810299 2.0 4.0
326.0 50.426069695222395 11.76147290704855 2.0 4.0
327.0 50.5569412055924 11.094851146801926 2.0 4.0
328.0 50.696815652204016 10.481373907849436 2.0 4.0
329.0 50.799583728635305 9.930895026260316 2.0 4.0
330.0 50.82310917923607 9.4544250512158 2.0 4.0
331.0 50.73103097971436 9.063643311357296 2.0 4.0
332.0 50.589742951005604 10.722940096056872 1.0 4.0
333.0 50.350372350157805 12.561356728393719 1.0 4.0
334.0 50.239148743794054 14.510971593195718 2.0 5.0
335.0 50.023574875463424 16.532489868386577 2.0 5.0
336.0 49.90615303839102 18.602483640013542 2.0 5.0
337.0 50.01570664718598 20.70641851209102 2.0 5.0
338.0 50.079509416925355 22.834913474450083 2.0 5.0
339.0 50.13708173408769 23.024047562488352 2.0 5.0
340.0 50.14104685191943 23.254682516298292 2.0 5.0
341.0 50.22457939579851 23.525597797036596 2.0 5.0
342.0 50.30658876878502 23.83541995606616 2.0 5.0
343.0 50.31010997405899 24.182653643803047 2.0 5.0
344.0 50.17286296929206 23.510720644473313 2.0 5.0
345.0 50.10137686800232 23.68356948753855 2.0 5.0
346.0 50.07652625300212 20.750448460774653 2.0 5.0
347.0 50.026903656311646 20.750448460774653 2.0 5.0
348.0 49.97118026297992 19.76753440142433 2.0 5.0
349.0 49.991399712070084 20.774933713083097 2.0 5.0
350.0 49.95946999464751 21.91894891094828 2.0 5.0
351.0 50.036200323875654 21.91894891094828 2.0 5.0
352.0 50.083041124146874 21.91894891094828 2.0 5.0
353.0 50.03285427691665 21.91894891094828 2.0 5.0
354.0 50.01848997277527 20.46896831265043 2.0 5.0
355.0 50.03146831921622 19.11378921523895 2.0 5.0
356.0 50.0325006948427 17.88002272215788 2.0 5.0
357.0 50.1684833270878 16.790583408869786 2.0 5.0
358.0 50.12247222763086 17.658801151918173 2.0 5.0
359.0 50.111984264182844 19.48700641085869 2.0 5.0
360.0 50.090860718298934 21.34604366168126 2.0 5.0
361.0 50.030915265212435 23.228511391652273 2.0 5.0
362.0 49.99500389300766 25.129144506098505 2.0 5.0
363.0 50.06202124716261 27.04411334184429 2.0 5.0
364.0 49.98816111842443 28.970575246160866 2.0 5.0
365.0 50.06620559454045 28.970575246160866 2.0 5.0
366.0 50.13269521332068 28.619523241836486 2.0 5.0
367.0 50.19555098933717 28.408393281444255 2.0 5.0
368.0 50.0605946861631 28.33944735341498 2.0 5.0
369.0 50.03840716051722 28.41317265299917 2.0 5.0
370.0 49.95649916201278 28.630411500562055 2.0 5.0
371.0 49.97724188051766 30.85135799156153 2.0 5.0
372.0 49.868926207723135 30.85135799156153 2.0 5.0
373.0 50.023001047262404 30.85135799156153 2.0 5.0
374.0 50.138484518787706 30.664641761180285 2.0 5.0
375.0 50.26321069878768 30.64255381084594 2.0 5.0
376.0 50.334531199254656 30.623863747961472 2.0 5.0
377.0 50.348671189067524 30.605173730014076 2.0 5.0
378.0 50.18854370927127 30.58377865546901 2.0 5.0
379.0 50.07507911290294 30.563250186390835 2.0 5.0
380.0 49.89570459637288 30.772881086925786 2.0 5.0
381.0 49.827028708367315 30.772881086925786 2.0 5.0
382.0 49.72542647079616 30.772881086925786 2.0 5.0
383.0 49.70037500762649 30.772881086925786 2.0 5.0
384.0 49.72644890454095 30.772881086925786 2.0 5.0
385.0 49.94700113672282 30.772881086925786 2.0 5.0
386.0 50.13418300314749 30.772881086925786 2.0 5.0
387.0 50.25316979421691 30.515339830648355 2.0 5.0
388.0 50.315652435366886 30.52269727833076 2.0 5.0
389.0 50.335389622743776 30.528874134823223 2.0 5.0
390.0 50.33411819354483 31.153440477557513 2.0 5.0
