#####################################################################
# Alchemist log file - simulation started at: 2023-03-03T08:05+0000 #
#####################################################################
#
# random = 19.0
#
# The columns have the following meaning: 
# time avgDistanceTeam[mean] minDistance[min] inDanger dangerTriggered 
0.0 NaN NaN 0.0 0.0
0.0 NaN NaN 0.0 0.0
1.0 NaN 20.46910067484488 1.0 1.0
2.0 NaN 51.13445054554438 1.0 1.0
3.0 65.25289990638248 49.13445054554437 1.0 1.0
4.0 60.919123526055294 47.13445054554436 1.0 1.0
5.0 59.14262544182005 45.13445054554435 1.0 1.0
6.0 57.26477035620472 43.13445054554434 1.0 1.0
7.0 55.321189233237384 41.13445054554433 1.0 1.0
8.0 53.608529663485974 22.397967428557045 1.0 1.0
9.0 51.72751952883425 20.39796742855709 1.0 1.0
10.0 50.012314488375154 18.39796742855714 1.0 1.0
11.0 48.063308620241 21.39796742855712 1.0 1.0
12.0 46.28073791896125 19.397967428557166 1.0 1.0
13.0 44.626868909518365 22.39796742855714 1.0 1.0
14.0 42.67682848051007 20.39796742855719 1.0 1.0
15.0 42.73870186472316 22.39796742855714 1.0 1.0
16.0 41.14799189662928 20.39796742855719 1.0 1.0
17.0 39.57031492604133 18.397967428557237 1.0 1.0
18.0 37.82221452424659 19.031036593958632 1.0 1.0
19.0 36.40278751238846 19.397967428557262 1.0 1.0
20.0 34.98259865944318 19.369767377405832 1.0 1.0
21.0 33.24541023539024 20.397967428557287 1.0 1.0
22.0 32.1874547997012 19.340271788625948 1.0 1.0
23.0 30.767798614613323 17.99115178095608 1.0 1.0
24.0 29.819926313680213 18.468750432278622 1.0 1.0
25.0 28.915597372444008 19.990632715084267 1.0 1.0
26.0 27.64841215872658 18.349019324273133 1.0 1.0
27.0 27.179993284333843 18.520498154261638 1.0 1.0
28.0 26.12185922751621 18.17340265297318 1.0 1.0
29.0 25.4533059262755 17.788493938720237 1.0 1.0
30.0 24.798335612646113 16.213074488575007 1.0 1.0
31.0 23.905224646028067 14.700186814656833 1.0 1.0
32.0 23.148762313913817 13.315077909488648 1.0 1.0
33.0 22.71898024850873 12.101610910808995 1.0 1.0
34.0 22.26609010397192 11.116029558625218 1.0 1.0
35.0 22.04141622445925 10.419205403146279 1.0 1.0
36.0 21.89208373891069 8.948034316561033 1.0 1.0
37.0 21.81917142340444 7.718471029145286 1.0 1.0
38.0 21.741369121253932 6.861652273698826 1.0 1.0
39.0 21.88015927546623 6.789493774940736 1.0 1.0
40.0 21.82336177197769 6.789493774940736 1.0 1.0
41.0 22.056856986804195 7.589776190202211 1.0 1.0
42.0 22.33342617831159 7.712292382779014 1.0 1.0
43.0 22.676641833567647 5.073122563154625 1.0 1.0
44.0 23.238289819066786 3.9889504834665157 1.0 1.0
45.0 23.87311563371637 4.471344200714874 1.0 1.0
46.0 24.56804348973491 4.034944787439774 1.0 1.0
47.0 25.42041526226075 5.093692538385463 1.0 1.0
48.0 26.443693769534626 7.2461289061858425 1.0 1.0
49.0 27.484941822945878 6.592404304864337 1.0 1.0
50.0 28.54059908342119 5.750831784215896 1.0 1.0
51.0 29.579215879457074 5.539344537208492 1.0 1.0
52.0 30.73184826402395 6.024666762025528 1.0 1.0
53.0 31.73811764146243 5.679716450534592 1.0 1.0
54.0 32.99595775122098 4.98164755968944 1.0 1.0
55.0 34.20309697382798 4.970838590726675 1.0 1.0
56.0 35.28938382796318 2.2575959076819965 1.0 1.0
57.0 36.60854955452159 1.521336561228895 1.0 1.0
58.0 37.5375201997422 3.7862006472086884 1.0 1.0
59.0 38.84356765163484 3.586108471337017 1.0 1.0
60.0 39.91857900634971 0.5147348965224571 1.0 1.0
61.0 41.269533561799854 3.9398762690425233 1.0 1.0
62.0 42.547602860674 1.647236213175972 1.0 1.0
63.0 43.50055138900646 4.543173677699852 1.0 1.0
64.0 44.51328538797753 4.893490075240704 1.0 1.0
65.0 45.418215350423466 6.5750140877892145 1.0 1.0
66.0 46.23810598099186 8.371954443839055 1.0 1.0
67.0 46.71052703127908 10.230572067645287 1.0 1.0
68.0 47.11414477822069 12.14482232543263 1.0 1.0
69.0 47.529620693726194 14.082884290058939 1.0 1.0
70.0 47.85522439770051 14.082884290058939 1.0 1.0
71.0 48.12929007369249 16.036549048755642 1.0 1.0
72.0 48.3666467473742 18.000410128887644 1.0 1.0
73.0 48.67276070717415 21.947737858568697 1.0 1.0
74.0 49.030444598489396 23.927972038484913 1.0 1.0
75.0 49.329545355080626 25.911244648176762 1.0 1.0
76.0 49.53623429870941 27.896906017785607 1.0 1.0
77.0 49.74936530526394 29.884479926505733 1.0 1.0
78.0 49.82360027057386 31.873608477712086 1.0 1.0
79.0 49.83656563234773 32.5039016552373 1.0 1.0
80.0 49.90884713765999 33.10990704287313 1.0 1.0
81.0 49.71042934547582 32.897360958202896 1.0 1.0
82.0 49.61121236802186 32.80559055467353 1.0 1.0
83.0 49.48920982865111 32.80559055467353 1.0 1.0
84.0 49.57629169595876 32.835608507482256 2.0 2.0
85.0 49.7512728828422 32.98708232736562 2.0 2.0
86.0 50.04006818440478 33.2583525601867 2.0 2.0
87.0 50.21474009897924 33.646521807511526 2.0 2.0
88.0 50.39886039648914 34.14760378920819 2.0 2.0
89.0 50.5225697887763 34.75671531475369 2.0 2.0
90.0 50.6061985472009 34.75671531475369 2.0 2.0
91.0 50.56840539311747 34.75671531475369 2.0 2.0
92.0 50.41932917340179 34.75671531475369 2.0 2.0
93.0 50.18685215194683 34.75671531475369 2.0 2.0
94.0 49.93947690277814 34.75671531475369 2.0 2.0
95.0 49.83528896832968 34.75671531475369 2.0 2.0
96.0 49.6552008753442 34.75671531475369 2.0 2.0
97.0 49.555321588478506 34.75671531475369 2.0 2.0
98.0 49.49682779694711 34.14834760281463 2.0 2.0
99.0 49.65695046239898 34.14834760281463 2.0 2.0
100.0 49.81893488824974 33.99682788758698 2.0 2.0
101.0 50.05536061514321 33.71579941461125 2.0 2.0
102.0 50.30346977658266 33.69260123078344 2.0 2.0
103.0 50.39625342077637 33.607765087076146 2.0 2.0
104.0 50.465882329482675 33.63313361597682 2.0 2.0
105.0 50.46326809019544 33.78973987172651 2.0 2.0
106.0 50.286558049817444 33.068116257224574 2.0 2.0
107.0 50.05473971878404 33.068116257224574 2.0 2.0
108.0 49.85118278009283 32.679167469120976 2.0 2.0
109.0 49.75854382465923 29.273146168529998 2.0 2.0
110.0 49.70282919233177 25.971487760217475 2.0 2.0
111.0 49.76566750126424 22.814739959014286 2.0 2.0
112.0 49.80357454454045 19.873401271140697 2.0 2.0
113.0 49.959161143827416 17.250422622282873 2.0 2.0
114.0 50.13476401834252 16.69140352849907 2.0 2.0
115.0 50.22926905328043 16.36977475549143 2.0 2.0
116.0 50.1972353624425 16.36977475549143 2.0 2.0
117.0 50.229395244167115 16.36977475549143 2.0 2.0
118.0 50.255685023980355 16.36977475549143 2.0 2.0
119.0 50.26387273345452 16.36977475549143 2.0 2.0
120.0 50.14922068173742 16.36977475549143 2.0 2.0
121.0 50.01067203711012 14.939224921271416 2.0 2.0
122.0 49.917540373403334 13.656786133318342 2.0 2.0
123.0 49.91574833828382 13.179628661131861 1.0 2.0
124.0 49.849047206499804 13.734440541740526 1.0 2.0
125.0 49.83603496495156 15.214256939618478 1.0 2.0
126.0 49.8113310666076 17.387042751677868 1.0 2.0
127.0 49.783719920811656 18.095653056594383 1.0 2.0
128.0 49.77522873281228 16.539568613538663 1.0 2.0
129.0 49.828371444385674 13.839755785921838 1.0 2.0
130.0 49.790803122815326 11.887763168356779 1.0 2.0
131.0 49.85324564990257 11.304260573063539 1.0 2.0
132.0 49.946979461821584 11.041755338550391 1.0 2.0
133.0 49.998974569679184 11.105978719997832 1.0 2.0
134.0 50.02493813681031 11.489954029815852 1.0 2.0
135.0 49.952108306012626 12.158533547706392 0.0 2.0
136.0 49.89451604489108 12.158533547706392 0.0 2.0
137.0 49.85722433217624 12.158533547706392 0.0 2.0
138.0 49.620505698561296 13.25449809117692 0.0 2.0
139.0 49.47640696781454 13.25449809117692 0.0 2.0
140.0 49.41876011882456 13.25449809117692 0.0 2.0
141.0 49.41593167573196 13.25449809117692 0.0 2.0
142.0 49.4673711744282 14.332327787857395 0.0 2.0
143.0 49.56037380721183 15.603227245086755 0.0 2.0
144.0 49.56218057520237 15.603227245086755 0.0 2.0
145.0 49.62695051931386 16.952217626647347 0.0 2.0
146.0 49.7431714749212 16.952217626647347 0.0 2.0
147.0 49.80947144290695 18.41995288974996 0.0 2.0
148.0 49.76594612850752 19.980281440960795 0.0 2.0
149.0 49.75408549010986 19.549980759867776 0.0 2.0
150.0 49.73335419903965 19.18765372092786 0.0 2.0
151.0 49.640125731529146 18.79835152697171 0.0 2.0
152.0 49.6139347502494 18.33907002736879 0.0 2.0
153.0 49.62286125430695 18.33907002736879 0.0 2.0
154.0 49.583772551586485 18.33907002736879 0.0 2.0
155.0 49.695312890526054 18.33907002736879 0.0 2.0
156.0 49.74918876259378 18.33907002736879 0.0 2.0
157.0 49.88297123324581 16.35023539117652 0.0 2.0
158.0 49.96549733686823 14.366304338899386 0.0 2.0
159.0 49.959083398432306 13.096126848268689 0.0 2.0
160.0 49.94396360402714 12.388895072900171 0.0 2.0
161.0 49.97764403922705 12.260203734903588 0.0 2.0
162.0 49.86816270266011 13.969325672090935 0.0 2.0
163.0 49.739684715182506 15.812391741149094 0.0 2.0
164.0 49.533623918022414 17.73971249597822 0.0 2.0
165.0 49.479685631624015 17.73971249597822 0.0 2.0
166.0 49.548473059256494 17.73971249597822 0.0 2.0
167.0 49.49500433756099 16.59169465265798 1.0 3.0
168.0 49.505515224088676 15.616378051715877 1.0 3.0
169.0 49.571823803791645 14.843626759355846 1.0 3.0
170.0 49.704560385031904 14.307550794542083 1.0 3.0
171.0 49.80610267834522 15.329376672546033 1.0 3.0
172.0 49.99894264234705 15.584541952237544 1.0 3.0
173.0 50.11336564977294 15.909990421769606 1.0 3.0
174.0 50.135489997058905 16.301451467512063 1.0 3.0
175.0 50.32109550489361 16.754356028590355 1.0 3.0
176.0 50.322077902264944 17.66343066526451 1.0 3.0
177.0 50.27722366052339 18.582021828446983 1.0 3.0
178.0 50.19938724328699 17.700642958646164 1.0 3.0
179.0 49.998021886937195 16.832527649347846 1.0 3.0
180.0 49.88142464068315 16.83760335879411 1.0 3.0
181.0 49.64456680791471 17.285052693997056 1.0 3.0
182.0 49.6424702893784 18.091878152190375 1.0 3.0
183.0 49.65087829122434 19.14003477666725 1.0 3.0
184.0 49.87117560443015 20.47050358801844 1.0 3.0
185.0 50.04947684836958 21.999191820814577 1.0 3.0
186.0 50.26638392123422 21.656256658960217 1.0 3.0
187.0 50.32974346701755 21.35468248859075 1.0 3.0
188.0 50.313045741812125 21.096243170249302 1.0 3.0
189.0 50.339119351707545 20.882540257546637 1.0 3.0
190.0 50.25539779625818 20.71495834699702 1.0 3.0
191.0 49.97904814525062 20.594623352408924 1.0 3.0
192.0 49.79488049785894 20.52236640198572 1.0 3.0
193.0 49.77801641694191 20.498695920646213 1.0 3.0
194.0 49.81925642595436 21.254849974714656 1.0 3.0
195.0 49.74933593908898 20.281064068298274 1.0 3.0
196.0 49.83215190343796 20.281064068298274 1.0 3.0
197.0 49.90764255856987 19.22356677080082 1.0 3.0
198.0 50.116979717812356 18.323654890224987 1.0 3.0
199.0 50.30355454444902 17.6056166610244 1.0 3.0
200.0 50.31207310165365 16.330518581809454 1.0 3.0
201.0 50.228406289060395 15.534339657392522 1.0 3.0
202.0 50.1178743989863 14.211301864850945 1.0 3.0
203.0 50.05852842966677 13.062126016667529 1.0 3.0
204.0 49.928730117079006 13.062126016667529 1.0 3.0
205.0 49.68653094177482 11.533788258038427 1.0 3.0
206.0 49.639975260976804 9.887693352303085 1.0 3.0
207.0 49.672144134958884 8.394365325411002 1.0 3.0
208.0 49.8343240513159 6.305091228731466 1.0 3.0
209.0 50.07468061766598 6.305091228731466 1.0 3.0
210.0 50.2438703923782 6.305091228731466 1.0 3.0
211.0 50.321082166632976 5.1289185156762 1.0 3.0
212.0 50.45505169083998 4.567197762330688 1.0 3.0
213.0 50.43173428763848 4.838813456919521 1.0 3.0
214.0 50.30168939305236 4.424309657551982 1.0 3.0
215.0 50.05021944215984 2.746549857111064 1.0 3.0
216.0 49.853186669220285 1.874434404292198 1.0 3.0
217.0 49.74908136501306 5.316446108583395 1.0 3.0
218.0 49.70171421948093 5.316446108583395 1.0 3.0
219.0 49.66156268994498 5.375336668857974 1.0 3.0
220.0 49.65255627709924 4.4850746695930095 1.0 3.0
221.0 49.78720883457653 4.395882480611136 1.0 3.0
222.0 50.02611019328807 5.149498283877607 1.0 3.0
223.0 50.277597982751516 6.457139398576195 1.0 3.0
224.0 50.32531764307226 7.5923896579838654 1.0 3.0
225.0 50.2516407654934 8.983620931250348 1.0 3.0
226.0 50.2628087446923 10.539739479062973 1.0 3.0
227.0 50.29388120408992 12.203540796845296 1.0 3.0
228.0 50.13161837524135 13.797051770022877 1.0 3.0
229.0 49.97552466794191 14.65752111765541 1.0 3.0
230.0 49.76974112491611 15.813126571004831 1.0 3.0
231.0 49.71422068482627 16.86524147794903 1.0 3.0
232.0 49.63517554439189 17.81448332903342 1.0 3.0
233.0 49.67442511704228 18.351305456757334 1.0 3.0
234.0 49.75231350050145 19.083936571482727 1.0 3.0
235.0 49.85190316370788 18.997159662521213 1.0 3.0
236.0 49.95922053987251 19.078939749840618 1.0 3.0
237.0 50.090899779819495 19.078939749840618 1.0 3.0
238.0 50.07676751209391 17.11120081808498 1.0 3.0
239.0 50.040749994643726 13.229383557647003 1.0 3.0
240.0 50.1013099078173 13.229383557647003 1.0 3.0
241.0 50.085907680381666 11.32996409209631 1.0 3.0
242.0 50.0590958551507 9.488823807285915 1.0 3.0
243.0 50.02451660588343 7.544462958768278 1.0 3.0
244.0 49.97527695764449 5.869309225994745 1.0 3.0
245.0 50.06370900103264 6.665493396858365 1.0 3.0
246.0 50.07536791968335 7.899933751880434 1.0 3.0
247.0 50.05592273124185 9.401554620976652 1.0 3.0
248.0 50.02674455482336 11.062081401077364 1.0 3.0
249.0 50.024543063589306 12.819908757745358 1.0 3.0
250.0 50.04863092098743 12.819908757745358 1.0 3.0
251.0 49.99157665104351 12.819908757745358 2.0 4.0
252.0 49.91706683393747 11.349180173316192 2.0 4.0
253.0 50.01299765469211 10.07195587033402 2.0 4.0
254.0 50.10324992903096 9.074335153716845 2.0 4.0
255.0 50.162423904294734 8.453477591015034 2.0 4.0
256.0 50.0578205534769 10.143332798810667 2.0 4.0
257.0 50.046090068287235 12.006470458276427 2.0 4.0
258.0 49.98889065775148 14.438045514394227 2.0 4.0
259.0 50.05792266580908 16.045154174080494 2.0 4.0
260.0 50.00447761916896 17.732366859986055 2.0 4.0
261.0 49.88912027255063 17.732366859986055 2.0 4.0
262.0 49.83802278067839 17.047060490067498 2.0 4.0
263.0 49.98105626405429 17.047060490067498 2.0 4.0
264.0 50.09019690903812 17.047060490067498 2.0 4.0
265.0 50.1224344416806 17.047060490067498 2.0 4.0
266.0 50.09013999862214 17.047060490067498 2.0 4.0
267.0 50.15835876933951 17.047060490067498 2.0 4.0
268.0 50.23138945889205 17.047060490067498 2.0 4.0
269.0 50.164084572731355 16.606461638354453 2.0 4.0
270.0 50.10972937542222 13.469309833310486 2.0 4.0
271.0 50.158592816115444 10.18316968449372 2.0 4.0
272.0 50.121640266306756 7.582621773954963 2.0 4.0
273.0 50.11831216757829 6.5465211146995825 2.0 4.0
274.0 50.06163521240147 7.763702532681206 2.0 4.0
275.0 49.97494110699546 10.486313038998098 2.0 4.0
276.0 49.96810640209551 13.863150517130238 2.0 4.0
277.0 49.962529988842476 13.863150517130238 2.0 4.0
278.0 50.03821226302469 13.863150517130238 2.0 4.0
279.0 49.989251162837384 13.863150517130238 2.0 4.0
280.0 49.96023085326083 13.863150517130238 2.0 4.0
281.0 50.02897734208195 13.863150517130238 2.0 4.0
282.0 50.24539972994765 13.863150517130238 2.0 4.0
283.0 50.281621625727155 15.74510502628034 2.0 4.0
284.0 50.221002568674784 19.501376336251024 2.0 4.0
285.0 50.11533447500629 21.66887298577269 2.0 4.0
286.0 50.005666290730645 18.71722698080447 2.0 4.0
287.0 49.94109031450879 15.78425459526945 2.0 4.0
288.0 49.884390354660376 12.886215771021757 2.0 4.0
289.0 49.733572548640616 10.064694265416591 2.0 4.0
290.0 49.74632438585443 9.101062012596348 2.0 4.0
291.0 49.87525525196607 8.146200884948698 2.0 4.0
292.0 50.070555357844995 7.203599652864784 2.0 4.0
293.0 50.19350315393138 6.278782291142796 2.0 4.0
294.0 50.14502015029201 4.081691231374755 2.0 4.0
295.0 50.1377296802511 3.415874373341847 2.0 4.0
296.0 50.211730264796024 4.9462247030435185 2.0 4.0
297.0 50.12540495211513 7.418778896800716 2.0 4.0
298.0 49.88833139293194 10.168290078572465 2.0 4.0
299.0 49.79995212811262 13.02250742966159 2.0 4.0
300.0 49.65218354557211 13.949683750125429 1.0 4.0
301.0 49.65200726905991 14.886290797288478 1.0 4.0
302.0 49.671703670095965 15.830654777183298 1.0 4.0
303.0 49.67615654176861 16.78146619480184 1.0 4.0
304.0 49.81190455584208 17.737688254679565 1.0 4.0
305.0 49.936486209353355 18.698490890794304 1.0 4.0
306.0 50.06647995391992 19.663202652824324 1.0 4.0
307.0 50.18511040091373 20.631275179662484 1.0 4.0
308.0 50.18641951461373 23.599184663209616 1.0 4.0
309.0 50.138318115684804 26.569513496804607 1.0 4.0
310.0 50.107148774790964 26.95822061695249 1.0 4.0
311.0 49.97740127213532 23.122089014872884 1.0 4.0
312.0 50.06076227541342 19.34731012225191 1.0 4.0
313.0 50.01237160214162 15.683418202728358 1.0 4.0
314.0 49.95803243629137 13.830762248575443 1.0 4.0
315.0 50.05733063734467 13.830762248575443 1.0 4.0
316.0 50.036722155444686 13.830762248575443 1.0 4.0
317.0 50.05937150094954 13.830762248575443 1.0 4.0
318.0 50.148436878384224 13.830762248575443 1.0 4.0
319.0 50.23240051026983 13.830762248575443 1.0 4.0
320.0 50.313547338683435 12.239203963727366 1.0 4.0
321.0 50.33827330328124 9.296844194699968 1.0 4.0
322.0 50.29345638110929 7.396936726882871 1.0 4.0
323.0 50.25471461824988 7.393901993839858 1.0 4.0
324.0 50.20355353212647 10.783824130823483 1.0 4.0
325.0 50.017067947921504 10.783824130823483 1.0 4.0
326.0 49.91654877199165 12.215601272132913 1.0 4.0
327.0 49.86382877773158 13.778483034646966 1.0 4.0
328.0 49.872017110570624 13.778483034646966 1.0 4.0
329.0 49.99038300533248 13.778483034646966 1.0 4.0
330.0 50.08702294877249 13.778483034646966 1.0 4.0
331.0 50.138363027089724 15.610481397213402 1.0 4.0
332.0 50.13929867958426 17.479349649496026 1.0 4.0
333.0 50.029262961569955 21.139058384739254 1.0 4.0
334.0 50.09917202966711 24.898465004156716 2.0 5.0
335.0 50.07593374678343 28.718207323460415 2.0 5.0
336.0 50.02936313553316 30.596286990711427 2.0 5.0
337.0 50.03162555712029 32.488923087149246 2.0 5.0
338.0 50.070147635175395 34.2526866787724 2.0 5.0
339.0 50.17542546706649 34.24600015227541 2.0 5.0
340.0 50.213302926806584 34.202699931085895 2.0 5.0
341.0 50.43879358604914 34.202699931085895 2.0 5.0
342.0 50.464471797488834 34.276243072611216 2.0 5.0
343.0 50.431068917891814 34.276310201187535 2.0 5.0
344.0 50.52115770061863 34.27636727232494 2.0 5.0
345.0 50.56958125911508 34.202874108138644 2.0 5.0
346.0 50.47111384997509 34.202874108138644 2.0 5.0
347.0 50.3406155482567 34.24621104315633 2.0 5.0
348.0 50.266464439533024 34.40593568777626 2.0 5.0
349.0 50.2505102542716 34.24623440760735 2.0 5.0
350.0 50.17206361422441 34.20293454506621 2.0 5.0
351.0 50.12072757159452 34.20293454506621 2.0 5.0
352.0 50.2051719571597 34.276477236917614 2.0 5.0
353.0 50.25115694502788 34.276461796001115 2.0 5.0
354.0 50.105891335445065 34.2764486683138 2.0 5.0
355.0 50.1676542304558 34.20289276511504 2.0 5.0
356.0 50.103760500124814 34.24618126266726 2.0 5.0
357.0 50.00717877343401 34.24618126266726 2.0 5.0
358.0 50.03315034276531 34.405874336351694 2.0 5.0
359.0 49.90844670369818 34.24617275152947 1.0 5.0
360.0 49.92152898903123 34.20287279522034 1.0 5.0
361.0 49.92262559136556 34.20287279522034 1.0 5.0
362.0 49.99849446397615 34.27641560597486 1.0 5.0
363.0 49.98921015809726 34.466053242879596 1.0 5.0
364.0 50.05666069057101 34.7698861881763 1.0 5.0
365.0 50.20894365860011 34.0162352104896 1.0 5.0
366.0 50.215850051005035 34.0162352104896 1.0 5.0
367.0 50.27581840526375 34.0162352104896 1.0 5.0
368.0 50.31786333857107 34.0162352104896 1.0 5.0
369.0 50.32953770756141 34.0162352104896 1.0 5.0
370.0 50.30920850429037 34.0162352104896 1.0 5.0
371.0 50.23620696082246 34.0162352104896 1.0 5.0
372.0 50.17319312866734 34.68039501834794 1.0 5.0
373.0 50.260559787449715 34.405900050706485 1.0 5.0
374.0 50.3443094993284 34.246198591217464 1.0 5.0
375.0 50.31068259512793 34.20289867224512 1.0 5.0
376.0 50.28304467650526 34.20289867224512 1.0 5.0
377.0 50.28730843735598 34.27644143150001 1.0 5.0
378.0 50.204674623869174 33.74065377754805 1.0 5.0
379.0 50.16522866713083 33.5057033327132 1.0 5.0
380.0 49.96358587799698 33.312852403553364 1.0 5.0
381.0 49.81366149947767 33.23979038595188 1.0 5.0
382.0 49.813951930966056 33.112465152922184 1.0 5.0
383.0 49.816500259551205 34.20288951970167 1.0 5.0
384.0 49.94803762001118 34.24618810275467 1.0 5.0
385.0 49.90862135395509 34.40588878393761 1.0 5.0
386.0 49.961907288015986 34.680383601607865 1.0 5.0
387.0 50.12920389036654 34.246187024424685 1.0 5.0
388.0 50.337005912257695 34.246187024424685 1.0 5.0
389.0 50.4139820591478 34.2028870887002 1.0 5.0
